label,mu_1,mu_2,mu_3,mu_4,mu_5,mu_6,mu_7,mu_8,mu_9,mu_10,mu_11,mu_12,mu_13,mu_14,mu_15,mu_16,mu_17,mu_18,mu_19,mu_20,var_1,var_2,var_3,var_4,var_5,var_6,var_7,var_8,var_9,var_10,var_11,var_12,var_13,var_14,var_15,var_16,var_17,var_18,var_19,var_20
1.0,0.11099838,0.13235614,0.13528258,0.2957886,-0.97970426,0.017990414,-0.17857487,0.18391569,-0.18177223,-0.24693853,-0.0015947223,-0.34568003,-0.18986747,-0.11520775,0.55595946,-0.7387471,-0.49816546,0.08171072,-0.1729888,-0.43526572,0.6555492,0.78082365,0.7672283,0.85427344,0.039710086,0.79513806,0.81925195,0.7584977,0.9042251,0.759577,0.88554716,0.74108124,0.7693621,0.870286,0.7705552,0.40616035,0.6529198,0.7495099,0.7943262,0.10537035
1.0,-0.4835794,-0.073619105,0.07091579,0.1434204,-0.8776815,-0.28916562,-0.34337917,-0.20583424,-0.25831458,-0.027399229,0.27521527,-0.096137874,0.019047879,-0.17055468,0.45665398,-0.7120102,-0.27486274,-0.30622518,0.35887194,-1.5133882,0.59500295,0.7351753,0.8138193,0.8609857,0.03793181,0.7974346,0.76028574,0.8086956,0.9424688,0.77231055,0.8133789,0.7639946,0.72862834,0.93200946,0.735369,0.37685367,0.6711405,0.7244376,0.81858206,0.11407902
1.0,-0.23887575,-0.03937511,0.04002756,0.06545643,-0.83033884,-0.14504339,-0.26584533,-0.1891084,-0.22706068,0.022285752,0.15279414,0.0038186144,-0.0997956,-0.0070422133,0.3271447,-0.42030135,-0.105190285,-0.1685207,0.10615573,-0.96912986,0.6511747,0.7859779,0.8318046,0.8598406,0.03127031,0.8079005,0.82910216,0.81536734,0.9071166,0.7631388,0.872884,0.774432,0.78234607,0.8856274,0.7169213,0.39568174,0.636993,0.76825726,0.8077159,0.10928292
1.0,-0.27813533,-0.0039912816,0.05769878,0.09741427,-1.2133403,-0.22173518,-0.17038292,-0.116702065,-0.15697534,-0.04372348,0.1308501,-0.0669722,0.09095502,-0.13806884,0.22412694,-0.4647883,-0.17360765,-0.20539594,0.24148914,-0.8944729,0.64504975,0.77697414,0.8195088,0.8783489,0.04447847,0.8499231,0.8146561,0.81497437,0.9658007,0.7877349,0.8571449,0.7630411,0.7898598,0.9033208,0.7872266,0.4440163,0.67063206,0.7469434,0.8409136,0.11328004
1.0,0.22566015,0.23272493,0.15586838,0.23610559,-1.3914235,0.00078907236,0.009098981,0.287863,-0.038958117,-0.30104738,-0.09268785,-0.31452093,0.11544881,-0.1766253,0.17197081,-0.5476807,-0.38092902,0.13868722,-0.117536746,0.079420224,0.67812794,0.7976946,0.78464997,0.88467664,0.051058333,0.8518366,0.8376766,0.76987505,0.9560875,0.7932612,0.89528453,0.72881883,0.8411976,0.86166847,0.82064706,0.4890214,0.6778983,0.7354496,0.82531154,0.104380265
1.0,-0.20995708,-0.097003974,-0.022327796,-0.02248882,-1.2871802,-0.18087134,-0.05158706,-0.17945871,-0.05923459,0.0552094,0.09075446,0.100042604,0.12134621,-0.0019762162,0.056025755,-0.063646406,0.07141948,-0.16060467,0.2061077,-0.48489934,0.66762465,0.8018858,0.86067647,0.8908995,0.043250866,0.8578409,0.84196925,0.8327882,0.95821923,0.79774797,0.8409811,0.7905057,0.8287547,0.8942276,0.8134765,0.490423,0.6903713,0.7672226,0.8419542,0.118368305
1.0,-0.33350196,-0.065361105,0.020354867,0.03958705,-1.19328,-0.23961651,-0.15441099,-0.19480708,-0.14745852,0.020758111,0.15384783,0.020411,0.08940231,-0.09740891,0.19262488,-0.3287496,-0.069109954,-0.24747773,0.2807297,-0.94091094,0.64544034,0.78095835,0.8304359,0.88478035,0.04226618,0.8492403,0.82074994,0.83184534,0.96185154,0.7877559,0.84453386,0.77411103,0.7956721,0.903703,0.78699905,0.45083258,0.6699817,0.7531447,0.84291273,0.11657439
1.0,-0.32470554,-0.14613666,-0.038714938,-0.079616874,-1.1915315,-0.2182886,-0.076973334,-0.26775953,-0.075416386,0.112333566,0.14874774,0.18473624,0.12654293,0.0045805876,0.054763738,-0.010057112,0.14367709,-0.23382504,0.2789323,-0.70666325,0.65403825,0.79803514,0.8554174,0.89598477,0.039298434,0.8480958,0.84010464,0.8437234,0.9504636,0.7878124,0.8247118,0.7935133,0.82288116,0.9015256,0.78958094,0.47973904,0.6803598,0.76652116,0.8380892,0.1204518
1.0,-0.352055,-0.29967466,-0.14511266,-0.25791222,-0.7570067,-0.119900554,-0.005535461,-0.37230775,0.006285049,0.2529929,0.18536398,0.4342361,0.090504035,0.1996137,-0.019314632,0.45420593,0.44714257,-0.1964976,0.18742701,-0.46165717,0.6165851,0.79633665,0.8745534,0.8732305,0.024332482,0.78721946,0.8115947,0.85823727,0.9097573,0.7610264,0.78455114,0.81912214,0.80090016,0.912662,0.70443577,0.44363248,0.6610907,0.7691545,0.77974904,0.12647036
1.0,0.6328714,-0.23960073,-0.050301947,-0.23352467,-1.6136618,0.32748073,0.60316,0.38599044,0.4645788,-0.08239083,-0.35800457,0.5847033,0.44798788,0.39712736,-0.96457905,1.2714671,0.68211514,0.66261923,-0.3402294,2.0060053,0.74720657,0.8600692,1.0698546,0.9990033,0.047499735,1.0656276,0.80849046,0.9505218,1.0240011,0.9849797,0.7855868,0.9389232,0.98527324,0.93791264,0.8655995,0.5718871,0.78431827,0.71850735,0.88917977,0.12177334
1.0,0.025548792,0.08232409,0.08273066,0.17990455,-1.2797596,-0.06293799,-0.052653074,0.10036513,-0.09393464,-0.17366241,-0.0011435747,-0.20250045,0.025187507,-0.114288375,0.27969432,-0.45347387,-0.28227696,0.0049145427,-0.0048595294,-0.2941166,0.66806275,0.7935697,0.7955576,0.87681514,0.04609019,0.83659047,0.8346942,0.78874016,0.94736135,0.78337926,0.86941445,0.7539144,0.8078654,0.87518173,0.8212174,0.46952108,0.67477393,0.7463709,0.83024436,0.110537685
1.0,0.09032993,-0.037983872,-0.0017048866,-0.009570006,-1.3970743,-0.026613843,0.09366995,0.04268807,0.06568721,-0.0813635,-0.03651289,0.07288656,0.26073796,0.047845937,-0.15399295,0.08987873,0.07735894,0.12651409,0.002710797,0.3577333,0.681853,0.80425483,0.8867282,0.8976753,0.044828173,0.8652925,0.8270661,0.8153556,0.9447367,0.81937563,0.8328287,0.81149775,0.8619099,0.9050365,0.8286469,0.51885486,0.7111044,0.7504323,0.82292193,0.110292494
1.0,-0.39960837,-0.14572863,-0.025507428,-0.058599934,-1.1403615,-0.2573603,-0.13456747,-0.3037565,-0.1249678,0.12106637,0.18135439,0.16458125,0.0982548,-0.032895878,0.10777293,-0.113942884,0.10227884,-0.29434574,0.3241105,-0.9609472,0.6451996,0.7885756,0.85157186,0.893414,0.03813327,0.84732515,0.83069867,0.85283715,0.95046,0.78390044,0.8277012,0.7896771,0.81282014,0.90321213,0.77007484,0.45887244,0.66764224,0.7662856,0.83677584,0.1202476
1.0,-1.1086868,-0.15609525,0.31117564,0.30507225,0.25421283,-0.51469034,-0.60057086,-0.40572777,-0.5728013,-0.22832817,0.44322792,-0.30504742,0.0645849,-0.2814579,0.5991357,-1.6730077,-0.56376165,-0.6121869,0.6440519,-2.6106856,0.46409935,0.75600815,0.90120465,0.8059199,0.037552018,0.6228531,0.73205465,0.76133853,0.84397745,0.7595947,0.7601273,0.7361923,0.57438457,0.87353176,0.6099552,0.25133884,0.7751389,0.676238,0.75857383,0.13217695
1.0,-0.23809764,-0.11059829,-0.03126008,-0.08460081,-1.2568264,-0.1805432,-0.04478535,-0.21258716,-0.042043105,0.08953888,0.110463515,0.17811364,0.16867104,0.0150741115,-0.0259365,0.028570512,0.1521349,-0.16846372,0.23242033,-0.46555054,0.6642594,0.80599606,0.8630115,0.8980457,0.04070635,0.85662955,0.84847707,0.8335673,0.9534195,0.7940818,0.83310777,0.79591924,0.83969015,0.8962325,0.7999711,0.49493462,0.6855291,0.76574445,0.83793896,0.117570505
1.0,-0.08378124,0.09897966,0.10476959,0.17255795,-1.3698984,-0.14908133,-0.08275522,0.06274258,-0.102260515,-0.16983476,0.03249175,-0.19485341,0.124591336,-0.17066708,0.2139583,-0.5282316,-0.28257903,-0.07555006,0.1282058,-0.5074444,0.66065544,0.7845484,0.7991421,0.877641,0.051139686,0.85785675,0.8237898,0.7924324,0.9755011,0.78896636,0.8703628,0.7401974,0.80326205,0.89236325,0.8226675,0.47351933,0.6888592,0.73981553,0.84656346,0.11110893
1.0,-0.40679696,-0.18967299,-0.04795731,-0.08481504,-1.0278482,-0.24002717,-0.13221006,-0.33835438,-0.12399822,0.15935056,0.19189598,0.21127716,0.03893638,0.021228388,0.1517289,-0.038633674,0.15508471,-0.2991978,0.29130828,-0.9826444,0.6408028,0.7926383,0.85541576,0.8907749,0.03455264,0.8300979,0.8292219,0.85885376,0.93800396,0.77935874,0.82027507,0.7958174,0.8076167,0.9002232,0.7581164,0.44941804,0.662279,0.7715927,0.8275509,0.12288139
1.0,-0.20976219,-0.11582542,-0.07177725,-0.13622129,-0.39360267,-0.059169244,-0.23551391,-0.36040047,-0.15331411,0.24655569,0.13901147,0.20921926,-0.2024433,0.18180607,0.20092483,0.071002856,0.22958136,-0.1878858,0.027519576,-0.8266157,0.64063627,0.8238851,0.8638891,0.84814847,0.017900754,0.7781986,0.8258771,0.84960526,0.89412266,0.751325,0.88231575,0.75346935,0.82049626,0.848852,0.5770844,0.36260596,0.6313256,0.7940162,0.7400676,0.11085645
1.0,-0.41472962,-0.046861537,0.1090426,0.21978003,-0.97971606,-0.2693407,-0.29028773,-0.09284757,-0.23050776,-0.112292044,0.2239115,-0.20565996,0.009469017,-0.19033764,0.5538306,-0.8076706,-0.38113117,-0.2514889,0.3257448,-1.3917748,0.59363323,0.7318677,0.79647017,0.8486249,0.044190966,0.7942606,0.75191236,0.7925143,0.95619845,0.76200783,0.8005176,0.74091357,0.7079384,0.94163114,0.7736393,0.39112285,0.6992696,0.7196931,0.82721585,0.11864986
1.0,1.1239017,0.6355826,0.54958045,0.846171,-1.2115566,0.39870837,0.18346822,1.1988926,-0.010811716,-1.0085508,-0.50434065,-1.1052117,-0.20901647,-0.3141624,0.78162897,-1.374424,-1.1826531,0.82301706,-0.9307771,1.1621819,0.68310016,0.7506166,0.72304386,0.8037503,0.05925644,0.7737447,0.75042796,0.675822,0.8949743,0.7242495,0.89815295,0.6101202,0.7563234,0.81577474,0.7817027,0.4846685,0.66063434,0.7181598,0.7517234,0.102407224
1.0,-0.35863444,-0.33816454,-0.15945023,-0.2816062,-0.79900795,-0.13878413,-0.021050064,-0.4242997,0.0213122,0.31741202,0.17575383,0.47919983,0.06479105,0.24582036,-0.06010277,0.5235985,0.51683676,-0.21646358,0.21062377,-0.46573108,0.6244547,0.80088073,0.9079508,0.8755228,0.025422923,0.79411995,0.8232143,0.8622536,0.9221858,0.7630015,0.7871672,0.821051,0.8163912,0.90698874,0.70054126,0.45664066,0.67902446,0.7956866,0.77205044,0.13073204
1.0,-0.014362691,0.08442957,0.17211433,0.39032683,-1.0417813,-0.05436741,-0.17902836,0.23295045,-0.18934521,-0.3333831,0.05573498,-0.46671695,-0.15292314,-0.21405202,0.7626603,-0.94015366,-0.65510744,0.038326807,-0.020683132,-0.74240226,0.61820966,0.7436839,0.74036336,0.84165066,0.04614922,0.7733495,0.76941,0.7478825,0.92166036,0.7420232,0.81190467,0.71919155,0.7143947,0.9037607,0.8099419,0.40709224,0.6939997,0.71873194,0.8053483,0.114790335
1.0,-0.12846164,-0.079658754,-0.03754308,-0.07413479,-0.548191,-0.03201048,-0.21216483,-0.26528877,-0.16560471,0.1688621,0.10233956,0.15120876,-0.21600077,0.16980389,0.24561585,-0.03896917,0.14168829,-0.12399847,-0.041158848,-0.6833711,0.65781236,0.824937,0.85849065,0.85289246,0.0217287,0.7856491,0.84888077,0.83241874,0.8925986,0.75283295,0.8903375,0.7652002,0.81951255,0.8465174,0.6340047,0.38563973,0.62753063,0.7995695,0.7611776,0.11026136
1.0,0.25642198,-0.22249354,-0.09436435,-0.2122913,-1.3640741,0.111324415,0.21770963,0.028278397,0.23307133,0.09805635,-0.12234258,0.4424669,0.29431716,0.33657396,-0.5619137,0.7673014,0.542761,0.30125156,-0.108399,1.0615153,0.7053341,0.8442263,1.015497,0.94360745,0.039648768,0.91894364,0.83039266,0.85558796,0.96360767,0.8628498,0.81124616,0.9050041,0.9126919,0.9220373,0.8302314,0.54290843,0.7490439,0.77364624,0.83141714,0.11422363
1.0,0.060490325,0.13024515,0.08929924,0.09159081,-1.5137224,-0.09918746,0.040124066,0.11719244,0.012629025,-0.18483461,-0.028371863,-0.108787574,0.2991201,-0.12554039,-0.07786833,-0.2648438,-0.13695127,0.040217303,0.084281914,0.024086878,0.6811823,0.79919994,0.8292436,0.9010771,0.053601626,0.88419086,0.83820033,0.7989033,0.9802139,0.8178867,0.86994183,0.74832946,0.86313605,0.884361,0.8363938,0.52545714,0.70543206,0.7334952,0.8462408,0.10787668
1.0,0.62645113,0.27032965,0.25343308,0.61537075,-0.6269298,0.32871318,-0.21612468,0.5820172,-0.21113153,-0.5289016,-0.18201199,-0.7860174,-0.62219846,-0.10265786,1.1662196,-1.1591334,-1.0152912,0.46930754,-0.70354307,0.07213114,0.66525507,0.76648456,0.705296,0.81995887,0.03775924,0.734152,0.79588586,0.68287814,0.8282278,0.7301595,0.88660884,0.694194,0.7167726,0.84554905,0.75361943,0.3562674,0.6667781,0.7472146,0.7300757,0.102078475
1.0,-0.10278772,-0.023629243,0.020507574,0.039458238,-0.9696989,-0.044556856,-0.08599582,-0.060998507,-0.13159755,-0.04066141,0.08448738,0.003770723,-0.03793349,-0.0049159927,0.27231157,-0.24282221,-0.07937704,-0.064387955,0.00038885325,-0.4886976,0.6551281,0.8053791,0.8009826,0.8780331,0.03334324,0.8026802,0.8479273,0.8073958,0.9135518,0.7649738,0.851918,0.78425163,0.8023218,0.86899656,0.77306,0.44402257,0.6308645,0.7542965,0.8143016,0.11226944
1.0,1.0378869,0.4838273,0.38926542,0.65293586,-1.3514355,0.38411036,0.27376533,1.0253767,0.07564214,-0.85734737,-0.4558859,-0.8402952,-0.044222258,-0.20110528,0.44392416,-0.88252234,-0.8626675,0.7972065,-0.8121306,1.3859291,0.68943805,0.7584034,0.7746375,0.84193665,0.05599314,0.8018261,0.7677297,0.7284698,0.89995754,0.7669619,0.86865294,0.66837317,0.8147685,0.8298532,0.80527097,0.5119541,0.67774004,0.72375697,0.7572338,0.10235327
1.0,-0.3639859,-0.115977116,-0.009619549,-0.033808947,-1.0504642,-0.2223242,-0.16414188,-0.27353173,-0.15631911,0.09779529,0.17787066,0.13094385,0.043759897,-0.027360529,0.16692033,-0.18979451,0.053298317,-0.26779857,0.2613738,-0.9778016,0.64551955,0.79121315,0.84251136,0.8868606,0.035629712,0.83523774,0.8332019,0.84475005,0.9400507,0.7791359,0.84037626,0.7892703,0.80555564,0.8936504,0.7593535,0.4424111,0.649578,0.7645788,0.8311058,0.11742644
1.0,-0.35684043,-0.30684006,-0.1294539,-0.23067044,-0.987977,-0.18161678,-0.02377037,-0.3848291,0.01094082,0.2561253,0.17361005,0.41107476,0.12327513,0.17567688,-0.045297265,0.393121,0.4222298,-0.21622653,0.26501954,-0.5018979,0.6360367,0.79522145,0.8995856,0.886938,0.031065112,0.8145404,0.8262796,0.855086,0.9275263,0.7738805,0.78237075,0.820399,0.8185267,0.9174035,0.7453321,0.47598132,0.69550997,0.7846327,0.7991047,0.12810451
1.0,0.02928464,0.109079696,0.63919026,0.6570735,1.6990424,-0.04051439,-0.29846743,0.30314648,-0.37268877,-0.53939795,-0.12582165,-0.7934647,-0.2857507,-0.2785718,1.0555975,-1.743975,-1.020033,0.072993405,-0.48947644,-0.65648836,0.46530747,0.80172074,0.8434062,0.81227165,0.02636945,0.52899706,0.7049306,0.6375088,0.6869773,0.7419992,0.85477716,0.65116334,0.65839887,0.73246545,0.34886533,0.18698147,0.7882665,0.70121306,0.5479569,0.12262958
1.0,-1.3702798,-0.0314311,0.07054059,-0.2216339,1.8674845,-0.70376664,0.16488126,-0.31073907,0.058620274,0.1678406,0.33693457,0.4134126,0.99425995,-0.18416987,-1.2503827,-0.121983945,0.7636212,-0.6142331,1.2213471,-1.1802382,0.3829771,0.782968,0.8188929,0.8110686,0.015470638,0.39051294,0.74051756,0.91779816,0.7884991,0.71107864,0.8062003,0.59061843,0.5728794,0.82077825,0.24239697,0.30346742,0.5752993,0.749746,0.52924967,0.16782795
1.0,-0.43286955,-0.16459377,-0.028678231,-0.056319725,-1.0220022,-0.25709048,-0.16943714,-0.3298743,-0.15344203,0.13541102,0.20883563,0.17168708,0.047672544,-0.021205436,0.1777925,-0.14283764,0.0952542,-0.31446883,0.3172697,-1.1000075,0.6359413,0.7837876,0.8469847,0.88935673,0.034733456,0.83132166,0.82192385,0.856942,0.9388532,0.7790437,0.8236318,0.79179114,0.7995389,0.9034628,0.7528774,0.43798584,0.65623647,0.76333463,0.82959896,0.12039957
1.0,0.6306119,-0.049062595,-0.01907058,-0.0343458,-1.4249159,0.27462438,0.309644,0.32870355,0.25617164,-0.1199684,-0.3204415,0.20559926,0.24473795,0.30352113,-0.5856724,0.6355182,0.34925732,0.57801616,-0.4297891,1.7156547,0.7326176,0.84805495,1.0217528,0.945264,0.04165373,0.9486612,0.823074,0.8558447,0.9493161,0.8752891,0.86520493,0.8909475,0.9411357,0.9050952,0.81734645,0.543853,0.72585595,0.77842134,0.8164318,0.10307608
1.0,0.7958028,0.45692578,0.37508142,0.68241584,-1.1054367,0.31368047,0.033115257,0.8770181,-0.06900623,-0.74617547,-0.3190318,-0.910684,-0.29148814,-0.271177,0.8508835,-1.2071924,-1.0586267,0.5868312,-0.7010582,0.6090032,0.6634262,0.76323664,0.6997634,0.8290502,0.05092793,0.7636105,0.7811909,0.6857406,0.881927,0.73444605,0.88517296,0.65837896,0.75421363,0.83310527,0.798625,0.4360246,0.66948617,0.7193393,0.75868887,0.10143808
1.0,0.24451098,0.14775525,0.12529847,0.24325064,-1.295927,0.05474973,0.07078138,0.30661508,-0.01716169,-0.33779725,-0.08540534,-0.2986609,0.08399887,-0.12207724,0.26593876,-0.44236347,-0.3633581,0.21411769,-0.1599311,0.20786153,0.6676076,0.7788686,0.7784656,0.870482,0.045589756,0.81602365,0.8203193,0.7702431,0.92476124,0.7781339,0.84399927,0.7371151,0.80577755,0.87404937,0.82240283,0.48693514,0.6809883,0.7228038,0.81287074,0.10762063
1.0,0.24758756,-0.052158155,-0.105959125,-0.14183488,-0.44395116,0.23341464,-0.010850566,-0.08664484,0.0033953711,0.16152771,-0.06231662,0.1837969,-0.28359082,0.31210682,0.12219539,0.37175903,0.2693736,0.13495667,-0.3553313,0.3215264,0.68302006,0.8516142,0.8595615,0.8475465,0.017467689,0.78733635,0.8625501,0.8042796,0.8856054,0.76020354,0.90296245,0.7591177,0.85201126,0.8247358,0.59358484,0.3931768,0.6321364,0.8035028,0.72662735,0.110911965
1.0,0.19655193,-0.09117735,-0.0065222606,-0.12206367,-1.5532418,0.0029546358,0.20308915,0.07758627,0.19122398,-0.043031357,-0.10844254,0.2540326,0.4311008,0.15489705,-0.5261127,0.4252065,0.30352375,0.24365473,-0.0199086,0.8470688,0.69772285,0.83155787,0.9681594,0.93746287,0.048999827,0.9229577,0.81730705,0.8461813,0.9677629,0.8659165,0.82027113,0.85350883,0.92882764,0.9316268,0.84125894,0.5561885,0.753708,0.75342417,0.8330081,0.11058193
1.0,-0.21084411,-0.10943914,-0.022601068,0.008806113,-1.1213268,-0.14822501,-0.09418695,-0.184974,-0.11505144,0.056166157,0.10258235,0.07178528,-0.011075631,0.021146894,0.2085928,-0.13790855,0.02398375,-0.16801317,0.13720796,-0.6289522,0.6626525,0.80104494,0.8471336,0.8798423,0.03815049,0.8326304,0.8416629,0.8324296,0.9394502,0.78176177,0.846966,0.79199886,0.8064196,0.8845695,0.79441446,0.46151093,0.6642034,0.7737039,0.8315378,0.118916616
1.0,0.1595463,0.28360456,0.45116365,0.730322,-0.2771227,0.05318151,-0.5047665,0.47760865,-0.40355468,-0.6472786,0.032351427,-0.84910053,-0.4106684,-0.37662882,1.210958,-1.8859801,-1.280914,0.27918118,-0.35283545,-0.93017584,0.5931009,0.7135774,0.76076573,0.8031112,0.049183454,0.69993037,0.72479117,0.63665473,0.82563883,0.7402939,0.85630816,0.68354964,0.67255414,0.87939,0.7040447,0.28879192,0.7487873,0.7059792,0.7233654,0.1039682
1.0,0.85623723,0.37453014,0.28760725,0.63825095,-1.0663902,0.37614772,0.06833911,0.81292415,-0.049613103,-0.64445126,-0.35590035,-0.83591,-0.36489013,-0.14546427,0.8013518,-0.94789207,-0.90841764,0.60560656,-0.7849054,0.8790583,0.67789084,0.77977747,0.73946285,0.8290121,0.04655112,0.77188337,0.78888017,0.70604897,0.8796619,0.74390286,0.8902877,0.6956045,0.7634986,0.8184114,0.80412847,0.4455995,0.6585574,0.74327356,0.75031424,0.102594234
1.0,1.4775717,0.5611853,0.49408552,0.7893747,-1.2782384,0.5693888,0.32337928,1.2898823,0.1020361,-0.9702474,-0.71159464,-0.9603422,-0.14061096,-0.08532135,0.36548677,-0.85532695,-0.9019173,1.0864674,-1.2383674,2.2372208,0.7265998,0.7987616,0.8404093,0.843638,0.05802392,0.8498053,0.726539,0.7223192,0.8904137,0.77512056,0.9191649,0.70624506,0.8375564,0.8197216,0.7798018,0.5205768,0.657744,0.754684,0.7268851,0.09596797
1.0,0.35109657,-0.274009,-0.124850385,-0.2733373,-1.347888,0.21392797,0.3342582,0.09512617,0.313576,0.08612532,-0.16778746,0.5575286,0.3048339,0.39792445,-0.6632363,1.0339737,0.6537307,0.41561174,-0.17564565,1.3507816,0.71804225,0.8417138,1.0197735,0.95534295,0.03710715,0.9435476,0.8340583,0.87780076,0.96695536,0.8880089,0.79242796,0.9249169,0.9148623,0.9284322,0.8332018,0.54227716,0.7520793,0.7541556,0.8448881,0.11688788
1.0,-0.14027731,0.091517076,0.117043644,0.19229893,-1.3055066,-0.16427676,-0.11402106,0.06211189,-0.12532432,-0.18639465,0.06489347,-0.21994138,0.11671661,-0.19403672,0.28764287,-0.618215,-0.3323857,-0.09843404,0.15939075,-0.6658103,0.64374894,0.7734084,0.7842909,0.8729636,0.050176155,0.84295666,0.8097014,0.78561425,0.97387016,0.7791344,0.85687613,0.73538154,0.7800858,0.90346795,0.8125952,0.4572124,0.68919307,0.73128647,0.8427266,0.111226976
1.0,0.08408642,0.14579765,0.112994626,0.18938494,-1.2018706,-0.017800577,-0.06694899,0.16132276,-0.104064114,-0.2109395,-0.013690777,-0.23330396,0.016620286,-0.1349546,0.2774744,-0.52337444,-0.33475408,0.04829604,-0.07779183,-0.22778493,0.6639333,0.79873526,0.7762593,0.8792618,0.04327877,0.8275019,0.8401738,0.77538264,0.936269,0.77620184,0.8852869,0.7501157,0.81667614,0.86557245,0.7984308,0.4560313,0.65561897,0.74180657,0.81643337,0.10586984
1.0,-0.22246437,-0.089905664,-0.014031909,-0.052830562,-0.36846626,-0.11776877,-0.36239335,-0.36581126,-0.23438272,0.2060455,0.16214034,0.12886018,-0.21056929,0.13282296,0.27596804,-0.19095938,0.10611566,-0.18575023,0.06775216,-1.0347939,0.6561487,0.80864483,0.8744049,0.8435831,0.019278409,0.78698665,0.8202546,0.8281663,0.8824914,0.7552988,0.8862942,0.7532504,0.8008692,0.86249703,0.5705352,0.3434485,0.6417059,0.7924065,0.74601144,0.10494727
1.0,-0.05629473,0.06415382,0.06629857,0.11496666,-1.3787578,-0.12980403,-0.04725909,0.021061558,-0.073561035,-0.113456115,0.020289108,-0.11583261,0.12626094,-0.11388646,0.12950425,-0.35624158,-0.17369401,-0.06282354,0.104260124,-0.35012698,0.6728076,0.7975604,0.819481,0.88568467,0.048940774,0.8639225,0.8390141,0.8040545,0.9686216,0.7983458,0.87236536,0.75722456,0.8269162,0.88245314,0.82624346,0.48738053,0.685584,0.7489709,0.8452242,0.11155434
1.0,-0.013934074,0.0389942,0.08913364,0.23957855,-0.6312352,0.02143525,-0.27144745,0.037719868,-0.24983141,-0.15998171,0.0944714,-0.26020914,-0.3048466,-0.035773464,0.69135284,-0.6955719,-0.42712483,0.016477099,-0.14683452,-0.7883472,0.63449794,0.7677966,0.7650267,0.8428923,0.02903926,0.7530198,0.8102618,0.77103037,0.8685242,0.7424665,0.8598198,0.74770045,0.73908764,0.8717078,0.7115005,0.36260733,0.6302711,0.74812406,0.7699159,0.10595903
1.0,0.68047917,0.26234904,0.22089705,0.57666576,-0.8540409,0.3534632,-0.047193088,0.6408989,-0.12916583,-0.53112817,-0.24509239,-0.75342613,-0.5105496,-0.09530247,0.9955288,-0.9373794,-0.8901501,0.4887032,-0.7033661,0.43335754,0.67031276,0.78124946,0.7147831,0.8286079,0.040047795,0.74817884,0.8045239,0.70460474,0.85416615,0.73098755,0.87118244,0.7108297,0.73542994,0.8289201,0.79854256,0.40698507,0.65312463,0.7459454,0.75069803,0.105363674
1.0,-0.5697364,-0.19976972,-0.19664484,-0.21207356,0.17558447,-0.2408293,-0.3221313,-0.63135064,-0.13101193,0.31262752,0.2874377,0.1958915,-0.10411214,0.07383683,0.060814805,0.09893572,0.30715725,-0.47626036,0.39615762,-1.4476303,0.56618756,0.81161803,0.85520923,0.85005736,0.0113397315,0.69628555,0.76287395,0.8882606,0.88306355,0.7589842,0.83002037,0.71646214,0.74639255,0.86297315,0.42039582,0.29308435,0.6278807,0.7553849,0.69033617,0.11931208
1.0,-0.24738139,-0.16518278,-0.054630645,-0.035692655,-0.8933753,-0.12619875,-0.13155268,-0.2631567,-0.14188367,0.1298521,0.13261755,0.14540151,-0.119520165,0.09878377,0.27023262,-0.055223253,0.10371348,-0.19712825,0.09735484,-0.7607798,0.65311134,0.80669755,0.8553905,0.87275267,0.030905675,0.8053543,0.84080297,0.8438027,0.92052543,0.7696682,0.84699535,0.7977671,0.7994679,0.8749339,0.7498477,0.43464077,0.64501524,0.786926,0.8095467,0.12074376
1.0,-0.35279384,-0.16602933,-0.09693519,-0.085333824,-0.1825274,-0.14870073,-0.37034017,-0.46843797,-0.2171343,0.24985223,0.22558603,0.13803566,-0.26453114,0.1366167,0.3563459,-0.10194954,0.13242033,-0.28476244,0.14469919,-1.3021207,0.6173265,0.8060895,0.8601233,0.8400947,0.01582303,0.74359846,0.78471684,0.84685093,0.8873879,0.7584773,0.87302846,0.73941624,0.78272444,0.86912286,0.53169215,0.31931642,0.6532655,0.78182393,0.7209953,0.11103091
1.0,-0.14843832,0.0743343,0.07875867,0.10444297,-1.3798598,-0.18317477,-0.095793664,-0.01979624,-0.10067641,-0.09657705,0.058848307,-0.1068605,0.16685084,-0.15832363,0.10590953,-0.42882347,-0.18392858,-0.13124724,0.1874496,-0.56172323,0.66295403,0.7914116,0.8167,0.8872768,0.049804036,0.87272507,0.832333,0.8059707,0.981169,0.79732275,0.8757024,0.75309753,0.8224436,0.89020175,0.8127962,0.4772449,0.681213,0.74606776,0.8491615,0.11075933
1.0,-0.13465348,-0.09531676,-0.030514024,-0.09698118,-1.412885,-0.15685178,0.02069575,-0.1440741,0.037466414,0.05472154,0.060059518,0.18404534,0.28845528,0.030766867,-0.18844458,0.13030866,0.18341708,-0.0717027,0.21371952,-0.093339816,0.6734472,0.8090365,0.8896722,0.9072554,0.045831658,0.8775958,0.84038424,0.82822233,0.96492827,0.81577116,0.82730705,0.80356306,0.86628693,0.90737134,0.8214588,0.5242324,0.7201324,0.75969183,0.837623,0.11533055
1.0,-0.25328723,-0.18096033,-0.08532394,-0.19672458,-0.6181203,-0.06209018,-0.08598459,-0.3225367,-0.081827424,0.22676212,0.14216632,0.33245713,-0.056461163,0.19589478,0.061981723,0.26182666,0.34593764,-0.1757511,0.055597745,-0.555836,0.6323674,0.8285744,0.8639852,0.86448765,0.02126321,0.78279954,0.8377523,0.85171455,0.90290046,0.7472658,0.84570146,0.7951022,0.82589895,0.8650498,0.6578636,0.41835076,0.6264907,0.7869231,0.7665002,0.11859335
1.0,-0.3340265,-0.2670918,-0.13063455,-0.27546558,-0.5677316,-0.10138555,-0.08203065,-0.43872988,-0.039685335,0.3340372,0.15198326,0.44026452,-0.040101044,0.25766248,-0.040869653,0.46293604,0.50416034,-0.22939105,0.14286393,-0.58827674,0.6280736,0.8212238,0.8945596,0.85915184,0.019327901,0.7843082,0.8330561,0.8685418,0.9114663,0.7400162,0.8335715,0.788734,0.8275003,0.87671757,0.61659575,0.4155557,0.64673847,0.80845255,0.7466011,0.12471657
1.0,-0.01929012,0.12488547,0.09821096,0.14008126,-1.4009254,-0.11910195,-0.050244145,0.08237111,-0.07133511,-0.16289066,0.0077214167,-0.16806646,0.16013838,-0.1581366,0.11663886,-0.44431433,-0.23825628,-0.03880707,0.08850933,-0.3154485,0.6698957,0.79704773,0.8040362,0.88896996,0.05074819,0.8666144,0.8377238,0.792274,0.9745423,0.7973631,0.8813679,0.7461319,0.83195853,0.8800613,0.82299507,0.4872764,0.6841159,0.74139583,0.8436945,0.10872341
1.0,-0.20930527,0.025379425,0.051020462,0.0499126,-1.2816231,-0.18883987,-0.11407657,-0.09630524,-0.116682,-0.032923475,0.09343125,-0.024137298,0.14105915,-0.11963308,0.09369025,-0.34265935,-0.102358185,-0.16954447,0.20258492,-0.6524406,0.65885365,0.79550636,0.8237806,0.8894402,0.044567533,0.8636512,0.83794814,0.8163195,0.9683283,0.79242635,0.87014884,0.76782286,0.82428867,0.8875807,0.79330707,0.4676624,0.6651652,0.75196403,0.84193456,0.11147715
1.0,0.02842111,-0.046342514,-0.009458229,0.049371503,-1.139341,-0.0035899468,-0.008574221,-0.0017607403,-0.050135393,-0.05725541,0.018186681,-0.0023686322,0.018253759,0.039261274,0.17119773,-0.09430479,-0.035584413,0.04335784,-0.047121875,-0.04263457,0.67026347,0.8019792,0.83570457,0.8785657,0.03721795,0.8172705,0.84174484,0.80267006,0.9174825,0.77666813,0.841655,0.80090535,0.8156495,0.87835985,0.807621,0.4752981,0.66585654,0.7616372,0.8127537,0.11250804
1.0,-0.29007864,-0.19392836,-0.09851334,-0.19398357,-0.5684091,-0.08848191,-0.13165309,-0.38193107,-0.101346865,0.26971495,0.151609,0.32400516,-0.11925665,0.20369242,0.106144875,0.2474839,0.346786,-0.22382902,0.08599772,-0.73770547,0.6334363,0.82755244,0.8712533,0.8608803,0.020504694,0.7830596,0.83746636,0.86542517,0.90827,0.7501966,0.85581577,0.78209895,0.8249699,0.8604445,0.6367408,0.40411144,0.63212323,0.7969478,0.7607782,0.12002647
1.0,-0.14588998,-0.08992292,-0.05927991,-0.081697464,-0.297497,-0.026470732,-0.2702237,-0.31797063,-0.1739752,0.20338945,0.12974322,0.12436652,-0.26337612,0.1663333,0.3109478,-0.03642803,0.12666218,-0.14810227,-0.035123013,-0.82398826,0.63968307,0.81863874,0.8520414,0.8398354,0.017044738,0.7660249,0.81015307,0.83273995,0.8814582,0.7527632,0.88403124,0.7420363,0.80975515,0.8481554,0.55833745,0.34244698,0.6347264,0.78722143,0.72654504,0.10835041
1.0,0.13276938,0.12656675,0.10159237,0.22127274,-1.2576773,-0.006770931,-0.045265466,0.17692034,-0.090586066,-0.21538849,-0.04511375,-0.26529828,-0.023577034,-0.11460656,0.3142096,-0.50022584,-0.34433064,0.07539167,-0.106534265,-0.13553505,0.67334193,0.7973067,0.7906152,0.87438995,0.04558592,0.8314399,0.8375249,0.7792746,0.9379197,0.78160584,0.8824909,0.7507964,0.8130581,0.8635038,0.8172493,0.46502966,0.6681202,0.74940825,0.82010543,0.10808161
1.0,-0.5716697,-0.24479009,-0.06746023,-0.13454837,-0.6197902,-0.282584,-0.25931272,-0.48616865,-0.1822026,0.26418015,0.30472827,0.27947968,-0.027940542,0.028826922,0.23099323,-0.050332215,0.20709622,-0.4102041,0.35888445,-1.4719222,0.5955246,0.77589476,0.8543866,0.8850885,0.023561753,0.77878153,0.7898793,0.88693905,0.90946835,0.77197576,0.8015965,0.7959512,0.79594,0.89531136,0.66163105,0.38069478,0.63703346,0.755651,0.7818974,0.1216402
1.0,-0.26712853,-0.24600054,-0.117792375,-0.19016434,-0.8935677,-0.101702034,-0.0047583263,-0.29439697,-0.009625882,0.1834944,0.14477228,0.33952713,0.08532402,0.16605636,0.014709411,0.32639974,0.34544602,-0.14196034,0.14910746,-0.35732627,0.6366541,0.7962819,0.8728673,0.8753142,0.028040778,0.80078954,0.8253011,0.84384054,0.91301066,0.7688493,0.7967038,0.8193027,0.80240816,0.9062143,0.74050915,0.4584799,0.66300744,0.7688793,0.7981123,0.12243438
1.0,0.13724996,0.12980276,0.1509539,0.35926938,-0.9681146,0.035808373,-0.18346407,0.23954454,-0.1897895,-0.30019775,-0.0044718683,-0.42770186,-0.23862502,-0.1409591,0.68301255,-0.8330918,-0.6015598,0.11210584,-0.1963594,-0.45705473,0.64706373,0.76996744,0.75148344,0.8484052,0.040800523,0.78182733,0.80411124,0.74770373,0.89778334,0.7510825,0.8671025,0.7343439,0.75013417,0.8745661,0.7820707,0.4002262,0.6621055,0.74239594,0.78980595,0.10703355
1.0,0.37390473,0.21835648,0.22550446,0.5254899,-0.7869047,0.19424395,-0.19055681,0.4836334,-0.20082557,-0.48117167,-0.06712716,-0.67652875,-0.41308835,-0.1992962,1.0034158,-1.0996407,-0.91450477,0.3148722,-0.43580884,-0.24559787,0.63378656,0.75323594,0.6974413,0.83929497,0.038994193,0.7372032,0.78474164,0.70627975,0.854584,0.7314017,0.8443001,0.71106035,0.7241438,0.85888404,0.77713513,0.37329477,0.6601118,0.72165954,0.7545506,0.10432489
1.0,-0.3028399,-0.18992358,-0.058757775,-0.03187178,-0.95756185,-0.17149124,-0.12055838,-0.2813932,-0.13198844,0.13072589,0.14985488,0.14370565,-0.0794727,0.07069615,0.27484637,-0.06151101,0.09616849,-0.23669942,0.16422158,-0.8425645,0.64672774,0.7972436,0.8541542,0.87566924,0.033372007,0.8115946,0.82852536,0.85033506,0.93036157,0.775904,0.83154464,0.79740334,0.79262906,0.88659143,0.76568896,0.44022545,0.6574191,0.7795705,0.81786364,0.123893216
1.0,0.8407475,0.38804945,0.2863358,0.56047094,-1.2440339,0.32660067,0.17216522,0.802106,0.017052263,-0.6600766,-0.36157218,-0.730083,-0.14566779,-0.16534348,0.5007387,-0.7843551,-0.758629,0.6250576,-0.69955385,1.0487783,0.68539906,0.76917905,0.77309567,0.8423676,0.048383296,0.7941443,0.7933621,0.73596686,0.89465797,0.76532453,0.8835609,0.6948785,0.8032674,0.8236371,0.7991919,0.48171064,0.65621626,0.73514885,0.762138,0.10188615
1.0,-0.1350145,-0.3696982,-0.15920618,-0.33006155,-1.0988767,-0.045830425,0.10142024,-0.27791357,0.17232051,0.27436346,0.09026522,0.5773482,0.2472435,0.31993192,-0.34690538,0.77280116,0.6320887,0.015910229,0.16550407,0.26504552,0.6567947,0.79976577,0.96699524,0.9073617,0.03159582,0.8390929,0.82846445,0.8436576,0.9387474,0.80533415,0.755759,0.8702278,0.84780145,0.93330115,0.771016,0.51170224,0.73629427,0.77897257,0.7980514,0.1274368
1.0,-0.35230565,-0.15197426,-0.03191442,-0.049974035,-1.0829138,-0.21563247,-0.11406103,-0.27644712,-0.12118834,0.10604893,0.16668001,0.15663172,0.050832644,0.0036242744,0.16548762,-0.093787104,0.09624919,-0.25653937,0.2581866,-0.874633,0.6467676,0.79212064,0.8435816,0.88747436,0.036305383,0.8331813,0.8326477,0.8472307,0.93975943,0.7791648,0.82717377,0.79133904,0.8017956,0.9007293,0.77648646,0.45483503,0.66356546,0.7646512,0.8350801,0.12063912
1.0,-0.37584227,-0.22139493,-0.20382676,-0.26605618,-0.1875777,-0.10394939,-0.21170111,-0.55184007,-0.05776544,0.400783,0.19301164,0.33676285,-0.19452474,0.22180748,0.06232423,0.43040892,0.43754873,-0.31562656,0.19304192,-0.9924323,0.61034316,0.8178064,0.86594856,0.8495477,0.013147998,0.76418465,0.7992482,0.90240204,0.91534156,0.75840145,0.86950403,0.73352605,0.8101139,0.8650999,0.50571084,0.3359244,0.6453264,0.78649616,0.7146473,0.12207754
1.0,-0.47871578,-0.15812443,-0.060368307,-0.08636743,-0.25027347,-0.20141116,-0.37412575,-0.46666133,-0.24805832,0.21537007,0.2903182,0.14872935,-0.14743653,0.05227303,0.33190477,-0.21465714,0.10038727,-0.3447225,0.24041924,-1.5004712,0.59144145,0.7863955,0.84513897,0.8477306,0.017160507,0.7346086,0.77826446,0.85460126,0.8877548,0.75176513,0.84415007,0.7601394,0.77723384,0.8719992,0.5603189,0.32466057,0.6316443,0.7575601,0.7328652,0.11065577
1.0,0.50412244,0.25117975,0.20305645,0.4911612,-0.90559155,0.24709354,-0.10262409,0.51669043,-0.14815526,-0.46216705,-0.15357041,-0.64241654,-0.3976519,-0.14309151,0.85734713,-0.92851776,-0.8140293,0.36721832,-0.5306345,0.12323822,0.6609464,0.77935475,0.71298707,0.8460981,0.039859448,0.7570176,0.8144097,0.7158658,0.8649795,0.7404045,0.8787254,0.7175127,0.75647724,0.83836704,0.7892241,0.40167287,0.65205675,0.74002206,0.76016307,0.10271911
1.0,0.41757083,0.16656028,0.13065922,0.34145153,-0.9275492,0.23873948,-0.0003264509,0.41010323,-0.10354392,-0.37430987,-0.11814029,-0.4434004,-0.2702166,-0.079803914,0.65190923,-0.59730834,-0.55648047,0.32466394,-0.4470142,0.2366559,0.66379416,0.78675646,0.7312925,0.8549695,0.035041995,0.75809336,0.8320675,0.7466013,0.8668696,0.741703,0.84878874,0.7454023,0.77337396,0.8345445,0.79674137,0.4311962,0.62877315,0.7348064,0.7749953,0.10613156
1.0,-0.17762564,0.067002356,0.08505979,0.12548834,-1.408562,-0.2037831,-0.09113422,-0.013377283,-0.098603666,-0.11955805,0.06771372,-0.13055025,0.18688256,-0.17413351,0.14140853,-0.46617356,-0.2080349,-0.14299358,0.22942093,-0.63036245,0.6571573,0.78114957,0.81122273,0.883176,0.05223595,0.87043476,0.82243675,0.80559295,0.9895966,0.7949896,0.8622929,0.7434853,0.8058553,0.9005426,0.8240001,0.48096487,0.69556475,0.73923355,0.85588175,0.11265226
1.0,0.8930498,0.5048381,0.46263808,0.80310094,-1.0193675,0.3431793,0.002536703,0.99138486,-0.0986454,-0.8484088,-0.37112767,-1.035734,-0.36781052,-0.2894713,0.99737483,-1.40839,-1.209427,0.6737036,-0.8157226,0.6570387,0.6651741,0.75475407,0.707691,0.80482566,0.05448517,0.75924176,0.7525111,0.6642268,0.87428164,0.7228,0.8926125,0.63839465,0.72418165,0.83754575,0.7890171,0.42494905,0.67585015,0.7216064,0.7493579,0.10315719
1.0,0.79573774,0.42189807,0.36183593,0.7095338,-0.96999586,0.33820364,-0.041310586,0.84470886,-0.110217646,-0.7104928,-0.311341,-0.9308942,-0.41984686,-0.22999103,0.9918701,-1.2485805,-1.1065696,0.58235615,-0.7552198,0.5299813,0.6634077,0.76828945,0.6999255,0.82127976,0.048967183,0.75749063,0.77570075,0.67498744,0.8673164,0.73030156,0.8928532,0.66749334,0.73541677,0.8364716,0.79310876,0.4104854,0.67363673,0.72900194,0.7479534,0.10138334
1.0,-0.40583444,-0.0029752068,0.25397423,0.43109885,-0.019275978,-0.15197323,-0.5729069,-0.05958356,-0.47459772,-0.3352312,0.24134019,-0.46931857,-0.3606856,-0.1695132,1.0293329,-1.5063552,-0.79509264,-0.14296095,0.05894456,-1.7754471,0.5646725,0.74126637,0.8125965,0.7918276,0.03614263,0.6689449,0.74909,0.69615084,0.84616905,0.73771036,0.8355949,0.6982251,0.6344293,0.90993494,0.6470425,0.27558818,0.7582045,0.7387878,0.7316199,0.1182769
1.0,-0.10049146,0.22370785,0.366206,0.54396605,-0.48826274,-0.09535736,-0.49749064,0.28091633,-0.36547112,-0.48205578,0.14147061,-0.60614,-0.19476375,-0.34973916,0.9144445,-1.6272428,-0.98379475,0.07792153,-0.06250074,-1.2372575,0.5902333,0.7149427,0.7681014,0.80695754,0.04780873,0.7359494,0.73027015,0.66707677,0.87807196,0.7425048,0.85754114,0.6943993,0.6851692,0.9287459,0.70286113,0.30817103,0.7404911,0.70769477,0.75644356,0.10261466
1.0,-0.50655496,-0.33380893,-0.15375975,-0.22242512,-0.5641907,-0.21193065,-0.118397355,-0.5055673,-0.066505395,0.3403864,0.24410057,0.393069,-0.088316835,0.17896108,0.16959804,0.33504295,0.3887321,-0.3771202,0.2544182,-1.0881689,0.5950042,0.79800385,0.86901754,0.8723225,0.021799767,0.7698182,0.79121196,0.9062758,0.92018944,0.76591927,0.80141795,0.795352,0.79781526,0.89700854,0.66168815,0.39667615,0.6552682,0.78031516,0.76384985,0.13543107
1.0,-0.187046,-0.121777855,-0.08837368,-0.17919049,-0.39309308,-0.027596157,-0.17664199,-0.3492592,-0.11184637,0.26185882,0.11960645,0.25501597,-0.17424747,0.20838706,0.12436296,0.19935605,0.3006062,-0.16964196,0.0021775886,-0.65987974,0.63888925,0.8324007,0.86482626,0.848651,0.017212663,0.7805592,0.82879317,0.8533043,0.8985315,0.74734724,0.8811634,0.75559896,0.8293846,0.84594715,0.572371,0.37126997,0.6280986,0.7956572,0.7367534,0.112629734
1.0,-0.33243573,-0.27617425,-0.19879082,-0.28322792,-0.41284105,-0.07208638,-0.10032253,-0.49409768,-0.019000348,0.38588285,0.14795792,0.41529986,-0.16872042,0.29234615,0.027954243,0.5519044,0.5114525,-0.25982487,0.12353044,-0.6966315,0.62374747,0.8261062,0.88575774,0.85042167,0.016615685,0.7752945,0.8245186,0.8947333,0.9243317,0.75185424,0.8607631,0.76168877,0.8188857,0.8717188,0.5780553,0.3844525,0.6557915,0.8107928,0.7338298,0.12928545
1.0,-0.42919418,-0.22963627,-0.06798274,-0.10053376,-0.9459287,-0.24003838,-0.13195705,-0.37129346,-0.121126294,0.19009176,0.20488359,0.24046725,0.00086375326,0.0545839,0.1888833,0.014074011,0.18898582,-0.31680876,0.28394914,-1.0278438,0.6328587,0.79174674,0.8586759,0.8874698,0.032356553,0.8169233,0.8207115,0.86640835,0.93217814,0.7766373,0.81218606,0.79859006,0.80094665,0.9016268,0.74714786,0.43999004,0.6629552,0.77420276,0.8185594,0.12575853
1.0,-0.30324757,-0.07076489,0.020043142,0.05908247,-1.2214411,-0.22450168,-0.11559327,-0.15912755,-0.12737235,-0.011690492,0.13701405,-0.0062738205,0.08981225,-0.089461304,0.2321198,-0.31990704,-0.08919094,-0.2196659,0.26474434,-0.8591238,0.6454448,0.77897626,0.8199176,0.8811679,0.04374419,0.8426576,0.81862247,0.8271939,0.96194965,0.7837375,0.83378613,0.767722,0.78541267,0.90869284,0.8051813,0.45937324,0.68341273,0.7480353,0.8466329,0.118472315
1.0,0.18701494,0.21169169,0.5979825,0.86928594,0.5991489,0.10617922,-0.5801336,0.3791615,-0.56536347,-0.6986414,-0.05719746,-0.96556604,-0.61700886,-0.2738075,1.4640031,-2.1462307,-1.4206836,0.31000006,-0.6525486,-0.8768217,0.5883702,0.7701985,0.8580685,0.7807164,0.04568362,0.65853065,0.7458468,0.5938252,0.7576106,0.76294696,0.8988001,0.68678737,0.6625939,0.798975,0.5760044,0.22514832,0.8036496,0.7456028,0.6392925,0.11814699
1.0,-0.08713168,-0.16111188,-0.12511179,-0.20768833,-0.3267246,0.010874193,-0.18103349,-0.38660622,-0.06061961,0.35414624,0.062401053,0.28757682,-0.25846118,0.29271492,0.098191835,0.36068866,0.38367265,-0.13591199,-0.031671397,-0.48495483,0.6693259,0.83592767,0.8982,0.84256124,0.015942426,0.80404764,0.8327988,0.8513679,0.9132162,0.76900196,0.8915934,0.7376757,0.8329191,0.8479356,0.5346389,0.35696083,0.6553781,0.8097369,0.72498965,0.11592391
1.0,-0.43707845,-0.02317184,0.07159947,0.09599817,-1.0024048,-0.28226507,-0.30154955,-0.19504724,-0.22962701,-0.017587915,0.23744011,-0.05150701,0.10896929,-0.18987273,0.2705708,-0.61733955,-0.20772988,-0.28465143,0.34993434,-1.3125777,0.6133261,0.7498566,0.8213487,0.87253386,0.039138645,0.8273669,0.7836617,0.8145028,0.95317346,0.7819302,0.83838797,0.7709372,0.76812136,0.9178155,0.7328803,0.39757928,0.65764356,0.7304291,0.8239132,0.10965156
1.0,0.011034304,-0.05571141,-0.0056505874,-0.11229471,-1.4830186,-0.088901415,0.09765278,-0.028173594,0.10734853,-0.016827596,-0.0021357387,0.19648153,0.39953914,0.052011825,-0.3516549,0.21525215,0.20250079,0.070434086,0.12580687,0.32446945,0.6812363,0.8176831,0.90331286,0.9221766,0.047426835,0.8915792,0.83338463,0.82339,0.96357375,0.83471465,0.8251138,0.8156164,0.89890033,0.91743785,0.82794493,0.54181755,0.732353,0.7468989,0.8323452,0.11087001
1.0,-0.45580244,-0.16438925,-0.020014264,-0.00594924,-0.7890973,-0.2466938,-0.27394158,-0.34262067,-0.21913478,0.12793918,0.25531954,0.11267508,-0.059432097,-0.016768541,0.34310028,-0.30271026,0.0025468618,-0.323583,0.2850829,-1.3477408,0.6180791,0.770051,0.8396956,0.8751499,0.02991213,0.7972553,0.79793334,0.84895194,0.9208613,0.77444816,0.82557917,0.78825694,0.77092475,0.9009335,0.7155793,0.39220232,0.6419257,0.75521845,0.8085623,0.11767469
1.0,-0.16501302,0.08709171,0.073615186,0.05404739,-1.3989108,-0.19523054,-0.092124954,-0.047172055,-0.08738956,-0.06253392,0.06517068,-0.057146054,0.22667944,-0.16504967,-0.006042611,-0.3666169,-0.12321857,-0.15069912,0.21648204,-0.5322498,0.6644493,0.7983833,0.82481474,0.8971,0.04930229,0.8853373,0.8410651,0.81155163,0.98811,0.8036929,0.88147455,0.7580116,0.8454953,0.88272864,0.8013773,0.48504832,0.67260695,0.7468942,0.84767205,0.109184004
1.0,-0.20171744,-0.13726237,-0.040561207,0.00045696273,-1.0602454,-0.12926425,-0.0895405,-0.19723463,-0.1133616,0.07400462,0.1028822,0.08841782,-0.05084697,0.054569032,0.2391586,-0.091348656,0.0479701,-0.16021065,0.10790639,-0.6058185,0.66057795,0.80185485,0.8514737,0.8762463,0.03616844,0.8216334,0.8396461,0.83475083,0.9325229,0.77811855,0.84196043,0.79769164,0.8018766,0.8816156,0.7882762,0.45681676,0.6614686,0.77843577,0.82357705,0.12040451
1.0,0.17701206,-0.036280267,-0.006750338,0.001075469,-1.1969,0.06631598,0.047473762,0.063514605,0.02519732,-0.049182363,-0.050594278,0.08162711,0.10345687,0.120494045,-0.059951536,0.09226877,0.09037764,0.17264058,-0.14500883,0.43467987,0.6832474,0.81861275,0.8838184,0.8938917,0.036933698,0.8401065,0.84115016,0.8050164,0.9182982,0.79367185,0.8505625,0.8323597,0.85557526,0.88495934,0.8105136,0.49227345,0.67764586,0.7693429,0.8074301,0.10810475
1.0,0.66528165,0.44589776,0.38465646,0.67267835,-0.98135424,0.26152992,-0.085880965,0.8082769,-0.12344605,-0.71731526,-0.23450872,-0.89556396,-0.2993648,-0.3163652,0.92199355,-1.3485068,-1.1208291,0.5199801,-0.6154826,0.26596832,0.64382607,0.7495566,0.6832581,0.8302751,0.04872797,0.75201976,0.7712993,0.6713984,0.8699974,0.7307783,0.88160783,0.66044986,0.7384765,0.8521892,0.7770061,0.39739922,0.67353946,0.70872325,0.75167376,0.0980928
1.0,-0.11318217,-0.2809086,-0.19084519,-0.33760187,-0.6553695,0.06896618,0.09898253,-0.25398362,0.11799796,0.25932857,0.0967949,0.53255504,0.124112755,0.32411596,-0.24629188,0.7798759,0.61509496,0.021947255,0.0038860738,0.2954675,0.62897253,0.803464,0.9015957,0.8640725,0.0192229,0.7920844,0.8179222,0.83512825,0.9033803,0.7621839,0.79929376,0.83787,0.8116601,0.905654,0.66567177,0.44437906,0.6526912,0.7653998,0.75919116,0.12002484
1.0,-0.06218063,0.0533983,0.07596361,0.14556332,-1.0331705,-0.060736082,-0.14581929,0.017034642,-0.16624969,-0.11815724,0.061027326,-0.14059992,-0.06396178,-0.07818961,0.3492511,-0.489758,-0.25639725,-0.04696823,-0.014785729,-0.5657009,0.65583795,0.7931632,0.79145694,0.86969054,0.037665904,0.813385,0.8360754,0.79157054,0.92187977,0.7667261,0.8757357,0.7645553,0.79255915,0.8736096,0.7728226,0.42881307,0.6411059,0.7530762,0.8136009,0.10867218
1.0,-0.255201,-0.21884261,-0.08344502,-0.1992752,-1.182896,-0.15914616,-0.0046358276,-0.2783932,0.029082365,0.16897935,0.13352063,0.3506042,0.23156819,0.12297036,-0.1530811,0.30799404,0.3499428,-0.1300761,0.25156954,-0.2673636,0.65541387,0.8037147,0.89661443,0.9011612,0.036329307,0.8401961,0.84042764,0.83451843,0.93697715,0.7871456,0.7944886,0.8220114,0.84373075,0.9172513,0.7817745,0.50479245,0.70499897,0.7718882,0.8178406,0.120721556
1.0,0.118401796,0.030422788,0.018455468,0.08195025,-1.0636979,0.03562632,-0.060769413,0.02246909,-0.09416613,-0.042526044,-0.03312189,-0.05149582,-0.112910785,0.06311925,0.20578228,-0.18249764,-0.070977226,0.059788696,-0.16085166,-0.039975658,0.6896057,0.82127255,0.84192276,0.8743951,0.035364803,0.82612556,0.87007433,0.80258024,0.91467935,0.77398664,0.89741355,0.78788424,0.8297392,0.85046905,0.78108627,0.45897007,0.64257056,0.7867941,0.8091468,0.10824231
1.0,1.0373358,0.5674976,0.45496163,0.7277466,-1.2755893,0.37626943,0.2259171,1.0841379,0.030018456,-0.9129388,-0.45356148,-0.9606915,-0.11845497,-0.2761924,0.60715264,-1.1290973,-1.012354,0.7723619,-0.83117807,1.1844883,0.6811735,0.7517452,0.7357835,0.8264277,0.055519216,0.78267956,0.7703833,0.70365965,0.89861035,0.7447562,0.8855624,0.63356,0.7868876,0.817878,0.78723025,0.4946754,0.6608097,0.7162361,0.7571514,0.10172891
1.0,-0.1803337,-0.11600686,-0.038089298,-0.14130983,-1.2390087,-0.13853548,-0.01562463,-0.19623418,0.0016305894,0.10729626,0.09429496,0.24954271,0.2213625,0.0666636,-0.14558622,0.15631239,0.24139723,-0.106568344,0.19469997,-0.22540587,0.666493,0.81500965,0.88067883,0.90265787,0.038702324,0.85374707,0.8537667,0.8266784,0.94677967,0.7927266,0.8273478,0.8088406,0.8585492,0.89633036,0.7906414,0.5059224,0.6879092,0.768613,0.826357,0.11586218
1.0,-0.76074845,-0.16842294,0.082232356,0.111285955,0.15272206,-0.31596798,-0.5285837,-0.44608584,-0.4240462,-0.037371412,0.35805643,-0.13538046,-0.1487897,-0.075807996,0.60439837,-1.0006881,-0.27676427,-0.47263247,0.41363817,-2.151361,0.5269615,0.77450156,0.854205,0.808197,0.022582676,0.63542753,0.75177246,0.7753334,0.8686395,0.7427846,0.80344206,0.7152988,0.649781,0.8839583,0.5400587,0.27434936,0.7203088,0.7341019,0.72044396,0.119965
1.0,-0.18802473,-0.03486433,0.039075464,0.11730033,-0.9977584,-0.12923431,-0.19073345,-0.105230436,-0.19036412,-0.03862512,0.11605779,-0.074589625,-0.08952034,-0.045431,0.37819752,-0.44291925,-0.18508068,-0.14064984,0.08389164,-0.8233277,0.65020406,0.7857165,0.81568426,0.86629504,0.037009984,0.8133358,0.8239376,0.8089337,0.92556524,0.7693321,0.8613092,0.7733267,0.7778799,0.8859009,0.76834506,0.42092994,0.6496152,0.7623431,0.81895775,0.11340241
1.0,-0.12639582,-0.12064215,-0.03452287,0.037149042,-1.0022072,-0.07185298,-0.08345041,-0.13764866,-0.12044345,0.031668536,0.08141645,0.03713437,-0.10686556,0.06330599,0.31213844,-0.12734734,-0.009857163,-0.0992117,0.023849197,-0.49979323,0.6609252,0.80107546,0.83845896,0.86973315,0.034422223,0.8060738,0.83910614,0.8241548,0.9185818,0.7681329,0.84247303,0.7972871,0.79354495,0.87500817,0.78602153,0.4490072,0.65386194,0.77713305,0.81351113,0.11902317
1.0,0.08846986,-0.20384322,-0.05014015,-0.19367877,-1.5059497,-0.015469559,0.23022367,-0.0066876854,0.21381676,-0.00034692138,-0.0483542,0.3771638,0.44729632,0.1906329,-0.5020074,0.5804509,0.3932856,0.21432135,0.067122765,0.7152042,0.69071877,0.81680983,0.95841074,0.93660057,0.045658924,0.9094031,0.8131155,0.85583544,0.9557015,0.86701137,0.7787548,0.8664697,0.905284,0.9537503,0.8455357,0.5523334,0.7678868,0.7385753,0.83829236,0.115848124
1.0,-0.17226313,-0.0051904675,0.038174704,0.058525987,-1.1875387,-0.1329788,-0.08161261,-0.06235689,-0.10991041,-0.068190955,0.09738044,-0.027077157,0.09723468,-0.08307761,0.18990697,-0.3084521,-0.11414976,-0.11484776,0.14130819,-0.5649734,0.6526215,0.79340845,0.8011974,0.8860952,0.040831175,0.83233577,0.83601373,0.8057478,0.9438649,0.775915,0.8476555,0.7720377,0.8044835,0.89218795,0.80001277,0.4648293,0.6642933,0.7436162,0.8347847,0.1125453
1.0,-0.3078558,-0.27405697,-0.1375899,-0.22113405,-0.7620308,-0.10388234,-0.029404711,-0.35832503,-0.023152042,0.24908753,0.15838186,0.38534826,0.010288663,0.20784372,0.03597824,0.38877675,0.40459925,-0.19046329,0.14066932,-0.48395634,0.62921125,0.8044618,0.8791797,0.8701503,0.024628362,0.7909006,0.8253264,0.85828876,0.9127693,0.76220375,0.8071339,0.8141354,0.80477875,0.8966096,0.7056545,0.4409411,0.6545473,0.78175753,0.7822912,0.12535253
1.0,-0.21355817,-0.014738141,0.03272684,0.062693395,-1.360956,-0.20470817,-0.07407049,-0.10049875,-0.08775075,-0.041686498,0.08743488,-0.029346704,0.15385255,-0.10503298,0.12372679,-0.2903546,-0.090575814,-0.1670129,0.23786914,-0.61775553,0.66158867,0.7884367,0.82657224,0.8874796,0.048096385,0.86504126,0.831409,0.820687,0.97508353,0.79631406,0.8505071,0.7630238,0.8126304,0.8995793,0.82366425,0.4847954,0.6937751,0.7486355,0.85296685,0.115746975
1.0,-0.5371979,-0.008656306,0.24376082,0.37833485,-0.30047968,-0.2522016,-0.5426307,-0.07685283,-0.43336853,-0.28352118,0.3050092,-0.3903957,-0.16372296,-0.25012454,0.8562688,-1.4488461,-0.71669585,-0.24101512,0.25564924,-1.9004993,0.5500257,0.7232024,0.81508696,0.80659884,0.041519575,0.70006764,0.7282699,0.7190575,0.8904411,0.7462474,0.8092546,0.7172241,0.64529705,0.9317377,0.6851933,0.2978837,0.74570525,0.71488357,0.76719576,0.11843986
1.0,-0.29123622,-0.10740819,-0.04688085,-0.05179393,-0.2780063,-0.111281455,-0.35091707,-0.3744236,-0.23231937,0.18248107,0.2074,0.09979664,-0.22653648,0.10295477,0.36526716,-0.20548241,0.061799236,-0.22535248,0.084401436,-1.1823568,0.6220942,0.80022794,0.8468223,0.84078765,0.017781658,0.7518385,0.7965228,0.83160824,0.88212067,0.7523852,0.87173486,0.7483426,0.7883823,0.86318135,0.5632082,0.33147866,0.63676846,0.776003,0.7316048,0.107725695
1.0,-0.22865796,-0.17162898,-0.06569525,-0.091722995,-1.1817485,-0.1623296,-0.03923464,-0.24647014,-0.03838846,0.13173603,0.102846846,0.20759207,0.093306534,0.08576564,0.024154514,0.11128381,0.20583248,-0.16002585,0.19238815,-0.42355263,0.6643691,0.8029546,0.88431484,0.88627875,0.038039736,0.8433278,0.8431798,0.84068745,0.94273746,0.78954923,0.8265612,0.80689204,0.8249033,0.89786184,0.7934601,0.48587236,0.6876983,0.7796108,0.8290824,0.12081618
1.0,-0.17559306,-0.040344536,0.021201372,0.074544236,-1.25659,-0.15725337,-0.06828079,-0.08454974,-0.09791107,-0.04927431,0.08328816,-0.03578438,0.07492402,-0.06618683,0.21455401,-0.27685001,-0.102868445,-0.12947471,0.1631589,-0.5693586,0.65974736,0.7895377,0.8191268,0.8810163,0.04404382,0.8414416,0.8313569,0.8159223,0.95381296,0.7851558,0.8427971,0.7707258,0.8000017,0.89533937,0.8185965,0.47340217,0.6833001,0.751085,0.842126,0.116585016
1.0,-0.23652306,-0.21842438,0.0010093823,-0.1216433,-1.0026717,-0.16803087,-0.06363895,-0.2769286,-0.071621686,0.11826181,0.0693103,0.31686765,0.110045925,0.18410349,-0.09203985,0.10294472,0.306451,-0.11564145,0.19421288,-0.39267254,0.6785539,0.816767,0.9276442,0.8750782,0.033863556,0.82657975,0.8650164,0.83486855,0.9075561,0.77089345,0.8278767,0.81135803,0.8055246,0.91724616,0.73321915,0.45792723,0.6957563,0.78660864,0.83261365,0.12207094
1.0,-0.4909712,-0.1815189,-0.027949147,-0.04422325,-0.9208151,-0.28186005,-0.22283903,-0.36757186,-0.18433295,0.1517521,0.24718538,0.16229358,0.020441785,-0.028835066,0.23991236,-0.20693363,0.07174442,-0.35273886,0.3504991,-1.295557,0.6214917,0.7692595,0.8453729,0.8850955,0.03215525,0.8185815,0.80502355,0.8637473,0.930051,0.77852213,0.816055,0.7909537,0.78095955,0.90840125,0.7330188,0.41290557,0.6499281,0.75512236,0.8231786,0.11949617
1.0,-0.35185462,-0.2970806,-0.14501622,-0.20190905,-0.7224044,-0.14091437,-0.07981532,-0.4222606,-0.05630918,0.29950735,0.16516548,0.3702576,-0.09609596,0.2254157,0.118068844,0.34752485,0.393321,-0.26305616,0.15404716,-0.7228729,0.6305199,0.8130698,0.8915588,0.86916023,0.024813198,0.78948706,0.82809484,0.8758127,0.9239678,0.7659764,0.8236297,0.8048553,0.8111226,0.8837696,0.6944505,0.43106148,0.6599969,0.8034377,0.7770307,0.13041772
1.0,-0.36659348,-0.1327446,-0.022262424,-0.06393205,-1.1228305,-0.226834,-0.10577752,-0.27099615,-0.110877074,0.09673825,0.17171101,0.16464211,0.11060256,-0.023800056,0.11028916,-0.093284376,0.1019773,-0.25941932,0.2918386,-0.8663142,0.6450836,0.7898804,0.8378348,0.8923079,0.037036516,0.8402917,0.83432907,0.84629846,0.9437939,0.78067166,0.8245663,0.7878692,0.806585,0.9038818,0.77687675,0.46068713,0.6639557,0.756819,0.8392514,0.11893949
1.0,-1.4042044,-0.19122936,0.4130637,0.27479056,0.60319334,-0.67224896,-0.5712319,-0.53113997,-0.69185406,-0.23230188,0.5076291,-0.24428974,0.34267786,-0.34710503,0.23696819,-1.7877414,-0.40843704,-0.7502564,0.8534961,-2.7878265,0.4373453,0.78876954,0.9700241,0.7939412,0.03273746,0.6010621,0.75418633,0.7943832,0.8156837,0.744407,0.7495647,0.7728913,0.5595202,0.8280524,0.5243207,0.23938344,0.7445869,0.67108136,0.7271785,0.12636465
1.0,0.017975057,-0.12990257,-0.28400904,-0.39629108,-0.11589366,0.2483524,0.07720569,-0.2994731,0.15926556,0.34436998,0.031358257,0.39436886,-0.1352439,0.29460663,-0.20088613,0.9550581,0.5671017,-0.028152416,-0.10068583,0.22971775,0.63230634,0.8250278,0.82264435,0.82891047,0.010590214,0.80125386,0.81484383,0.8796456,0.9238447,0.76161075,0.8673584,0.72236323,0.80556625,0.8467761,0.47981343,0.34082943,0.60871035,0.7463053,0.70674014,0.12648277
1.0,0.8900926,0.38126007,0.30482015,0.47065952,-1.4713837,0.29355127,0.31678775,0.82929766,0.122301966,-0.7146703,-0.41248333,-0.5760258,0.14449862,-0.12762253,0.08334483,-0.534853,-0.55632454,0.7236507,-0.65473294,1.4268162,0.70604783,0.7654705,0.8436617,0.8629644,0.054996535,0.8419267,0.7828867,0.77483153,0.9124163,0.80517864,0.8721916,0.7037492,0.86114967,0.853219,0.799846,0.5349058,0.6800018,0.73168665,0.7751982,0.10210141
1.0,0.76874983,0.46256387,0.37860042,0.6590221,-1.1864076,0.28795242,0.08414373,0.8827819,-0.042612307,-0.7675421,-0.3078931,-0.88490546,-0.19584915,-0.29388258,0.7658225,-1.167029,-1.0156379,0.57905936,-0.63835275,0.61858886,0.6604091,0.7552165,0.6999617,0.83382237,0.05212316,0.76667064,0.7819394,0.69477326,0.8929299,0.73631126,0.86918926,0.6511872,0.76150364,0.83506584,0.80407715,0.45490682,0.6716014,0.7098093,0.7677583,0.10285347
1.0,-0.3297846,-0.17483656,-0.053724743,-0.10201791,-1.1215982,-0.203903,-0.075562134,-0.28954408,-0.074364215,0.1361331,0.1566393,0.22238646,0.100626126,0.040808782,0.066136256,0.045835793,0.18594512,-0.23142733,0.2598367,-0.6976581,0.6511546,0.79985166,0.8594491,0.89324826,0.036636308,0.83666635,0.83985716,0.84528655,0.9405127,0.78164244,0.8190206,0.8000434,0.81945026,0.9015589,0.7801197,0.47452638,0.6758279,0.770719,0.8308976,0.12154997
1.0,-0.01691689,0.0027360842,0.018173397,0.03629742,-0.8303951,0.007778313,-0.13698246,-0.071196586,-0.15654747,0.00072165113,0.049500737,0.009322043,-0.15727606,0.0681772,0.283184,-0.22911245,-0.052670397,-0.027893314,-0.11251088,-0.42166245,0.6689248,0.8206282,0.82258564,0.8679005,0.02961296,0.7989777,0.8648701,0.8072313,0.9005906,0.75967,0.8893212,0.78142935,0.8161877,0.84780693,0.7317314,0.42442995,0.6193279,0.7817102,0.7937636,0.10909573
1.0,-1.2851127,-0.1423909,0.39100513,0.27106237,0.25094834,-0.6273684,-0.54141223,-0.4257509,-0.64117515,-0.26097926,0.4824819,-0.25137377,0.35813633,-0.3796337,0.24656999,-1.7547021,-0.4439201,-0.6869876,0.83382756,-2.6743994,0.4457199,0.758115,0.9196387,0.8032646,0.034412008,0.62141496,0.7518352,0.8066939,0.8267286,0.7236867,0.74115115,0.782306,0.5700895,0.8559046,0.5671806,0.25113288,0.7313843,0.65083826,0.7704609,0.116048306
1.0,0.88993263,0.5232119,0.42961898,0.73790514,-1.0820142,0.34964582,0.03450562,0.97547513,-0.06489194,-0.8179597,-0.35993198,-0.98520714,-0.2988181,-0.29688713,0.8791198,-1.3151205,-1.1445706,0.6544614,-0.78340495,0.7201602,0.6634395,0.7620001,0.69310963,0.8243245,0.05271497,0.76206017,0.77264565,0.670238,0.8788277,0.7291715,0.89667594,0.6450303,0.7522316,0.8307256,0.79047275,0.43299428,0.6707573,0.7176006,0.7510151,0.09977144
1.0,-0.41778225,-0.28715757,-0.11559125,-0.20643057,-0.76260525,-0.18275315,-0.0864899,-0.42363027,-0.06741425,0.27247646,0.20356211,0.37853128,-0.006419897,0.16269451,0.09450425,0.28323618,0.36974463,-0.28973585,0.2262826,-0.8351111,0.62149644,0.80497015,0.8744613,0.87929857,0.025730751,0.79176307,0.8212981,0.8724682,0.91776377,0.7628051,0.8035968,0.8071476,0.8117613,0.8963246,0.70229983,0.43497476,0.6570764,0.78534245,0.7849892,0.12863198
1.0,-1.358056,-0.3028774,0.14195396,0.074929185,0.5115508,-0.62125874,-0.5366823,-0.68635154,-0.5045171,-0.0124281775,0.5424513,-0.094961345,0.18575269,-0.22311577,0.27119842,-1.2515315,-0.16530955,-0.8499447,0.9446924,-2.8222418,0.43316552,0.77946675,0.9400863,0.82065505,0.023577387,0.5432015,0.72338206,0.8319095,0.8367911,0.7643541,0.7076105,0.7363774,0.58636594,0.83262706,0.49739566,0.25782016,0.72512805,0.68538654,0.6981952,0.13946916
1.0,0.70205426,0.2761541,0.17034112,0.43935552,-1.107019,0.3125591,0.07170305,0.58319604,-0.03203476,-0.45393088,-0.28533465,-0.5726465,-0.26012933,-0.07081701,0.5203873,-0.5972605,-0.60283667,0.4977119,-0.63646215,0.83249354,0.6934346,0.7915413,0.7795743,0.85294384,0.04098952,0.7932476,0.8264963,0.744871,0.88241404,0.7658258,0.89904106,0.7372173,0.807046,0.81945145,0.7967316,0.45740345,0.6427097,0.7565475,0.76358944,0.100878246
1.0,-0.3379804,-0.13003927,-0.01696074,-0.016575862,-0.703685,-0.15324181,-0.23538803,-0.2854488,-0.21084884,0.10622222,0.20489725,0.11282795,-0.115520574,0.03710836,0.34080058,-0.23938009,0.01908245,-0.23941095,0.14584863,-1.0999651,0.62813205,0.7903515,0.8309375,0.8666771,0.02668499,0.78251165,0.81826365,0.83868897,0.90423286,0.75959694,0.8433658,0.7861894,0.78350025,0.8797019,0.70040786,0.39250794,0.6257311,0.76431054,0.79289347,0.1151683
1.0,-0.27954978,-0.08668048,-0.013553172,-0.032301646,-1.3757479,-0.23860432,-0.054249372,-0.20424086,-0.049566843,0.053852454,0.11394838,0.103562616,0.2063577,-0.056231447,0.00051230565,-0.08231125,0.06969759,-0.21059288,0.3102946,-0.6021523,0.6626307,0.7928306,0.8540726,0.8985169,0.046697292,0.8743501,0.8371934,0.8382557,0.975211,0.80451804,0.83439493,0.7777427,0.83210063,0.90438825,0.8177238,0.49993053,0.70421606,0.75662154,0.8518121,0.118470386
1.0,0.10749221,0.026395572,0.044932157,0.15831375,-0.9636177,0.0716386,-0.05420452,0.10782721,-0.12228925,-0.15682982,0.005006872,-0.16084273,-0.15209287,-0.010528068,0.4322547,-0.34779054,-0.250693,0.09086958,-0.18095449,-0.1739898,0.66256857,0.7985675,0.779355,0.8674981,0.033719547,0.78379023,0.8439493,0.78373677,0.89174366,0.7526054,0.85100716,0.7768682,0.7897527,0.85743934,0.78958315,0.4396842,0.63499284,0.75300926,0.79851335,0.110287026
1.0,0.7302669,0.31815386,0.2300506,0.55679846,-0.9566225,0.35119367,-0.014917857,0.6719246,-0.09492343,-0.53792197,-0.27429223,-0.7372875,-0.4255754,-0.11884177,0.8414384,-0.8993653,-0.85337704,0.5099069,-0.7124005,0.5955461,0.67671156,0.7888274,0.7216956,0.8410444,0.041591767,0.7631869,0.81385416,0.7078577,0.86567545,0.742468,0.8952045,0.7117379,0.76638913,0.82098323,0.79708934,0.42112672,0.6511397,0.7470408,0.75173706,0.101312466
1.0,-0.29574406,-0.16887267,-0.07959031,-0.114857264,-0.459681,-0.12460849,-0.26781592,-0.41319948,-0.17558977,0.2620084,0.1756287,0.21830235,-0.21822679,0.1765369,0.25544873,0.025218999,0.21951854,-0.24250843,0.1069945,-1.0326972,0.63913983,0.8123461,0.8733674,0.8523603,0.019491429,0.77642304,0.8231923,0.85899186,0.8968077,0.75604,0.87300414,0.7622964,0.8075267,0.86393565,0.6037509,0.3659816,0.64303255,0.7972043,0.75429195,0.11408081
1.0,0.75616133,0.4820719,0.52261883,0.8788682,-0.65061593,0.26929963,-0.31719953,0.87023634,-0.24801926,-0.81043893,-0.23822701,-1.0540307,-0.50464106,-0.3501217,1.2483288,-1.7637302,-1.4139472,0.6429848,-0.7744814,0.09011118,0.6634442,0.7341594,0.73625755,0.7948311,0.057234462,0.7559745,0.7236601,0.6145992,0.84488374,0.73265696,0.9131862,0.64743495,0.70769477,0.8612812,0.7552616,0.34676906,0.72083074,0.72382957,0.72474915,0.10070262
1.0,-0.40142605,-0.30156064,-0.13942876,-0.1987682,-0.6613275,-0.15516633,-0.08099669,-0.42175043,-0.06338102,0.27816197,0.20001979,0.36298746,-0.06592133,0.19121228,0.14928925,0.31226498,0.36205298,-0.2841547,0.17660579,-0.8151631,0.6126353,0.8058787,0.8716862,0.8699079,0.023732837,0.7759593,0.8083161,0.8775569,0.91698563,0.7623848,0.80850023,0.8055037,0.80070287,0.8924324,0.68845034,0.41916847,0.65272987,0.78518945,0.7722522,0.13073005
1.0,-0.22722492,-0.11506816,-0.046649106,-0.1349273,-0.59755677,-0.07436945,-0.17279115,-0.310674,-0.14607148,0.20104885,0.13370603,0.23972599,-0.123874806,0.15906738,0.14213784,0.06423403,0.2355383,-0.1811593,0.044710852,-0.7325358,0.64593077,0.8271021,0.8594686,0.860565,0.021761362,0.79011565,0.84874713,0.8478158,0.89999926,0.7481974,0.8725275,0.7772936,0.825771,0.85238266,0.6435499,0.40065905,0.62154967,0.7933587,0.7691283,0.11325228
1.0,0.011776799,-0.0020345356,0.016617596,0.07983181,-1.2206209,-0.042921077,-0.026035182,0.0069204215,-0.06469937,-0.071208656,0.009997718,-0.05442635,0.028842323,-0.011944992,0.17248046,-0.1965168,-0.09333972,0.005119195,-0.013167955,-0.15022705,0.6746477,0.80409604,0.83172876,0.8809356,0.04112363,0.83433175,0.84529525,0.8045365,0.9353228,0.7866757,0.8594942,0.78581303,0.82272136,0.87327886,0.81471795,0.47841573,0.6689197,0.7613155,0.8237554,0.11203745
1.0,0.09023426,0.060966045,0.050515763,0.10903448,-1.3362648,-0.030387254,0.014924377,0.10071575,-0.023803804,-0.14848134,-0.026607893,-0.11098601,0.12249753,-0.058511883,0.09718886,-0.23782997,-0.15074542,0.07139229,-0.027278684,0.042165756,0.6768494,0.8018167,0.8245849,0.8878108,0.045586478,0.84665495,0.83870715,0.7942798,0.9448813,0.7971487,0.86101395,0.7739745,0.83873886,0.8774853,0.8264395,0.49475163,0.68556726,0.7474745,0.82493037,0.10911973
1.0,-0.00866206,0.09118348,0.0629116,0.047800243,-1.5248946,-0.1374916,0.010169022,0.02996579,-0.0008464977,-0.10168304,-0.0054220557,-0.046556987,0.28420976,-0.10593138,-0.11543441,-0.20263895,-0.06581807,-0.028776566,0.13862139,-0.08427656,0.6848241,0.8081519,0.8484485,0.9048614,0.05339747,0.89711547,0.84623194,0.8112006,0.98623186,0.82163644,0.8747291,0.76103234,0.8734181,0.8824575,0.8367381,0.52483404,0.70407754,0.74644065,0.852169,0.10962231
1.0,-0.2107896,-0.18498601,-0.13414234,-0.24294113,-0.44956428,-0.014633764,-0.09047724,-0.36987552,-0.048105847,0.29910335,0.11383039,0.3531039,-0.13304964,0.2607559,0.02863235,0.41564152,0.42591932,-0.16914819,0.015642084,-0.48564136,0.6341046,0.8360274,0.8743205,0.85090685,0.017305931,0.78213376,0.8324594,0.8640112,0.9087978,0.74533737,0.8688121,0.76926875,0.8295765,0.8558628,0.5901574,0.39226025,0.63417,0.800367,0.74063635,0.11916211
1.0,-0.35642087,-0.35726908,-0.1997649,-0.3325806,-0.6014174,-0.09168755,-0.014224361,-0.4716764,0.0418726,0.3815452,0.16125311,0.5305722,-0.0019880608,0.3148893,-0.10056731,0.6818352,0.613358,-0.22126539,0.16616586,-0.4180441,0.61604714,0.8081057,0.9123901,0.8588037,0.020085255,0.77965355,0.8215853,0.87462294,0.9255229,0.7515204,0.80641013,0.8050979,0.81552815,0.8966186,0.63813895,0.43129498,0.66938156,0.80991274,0.74101835,0.13427053
1.0,-1.1913689,-0.21588136,-0.07742632,-0.06707825,0.97748303,-0.57979596,-0.28155053,-0.5825402,-0.1709022,0.1207717,0.36277065,0.1715239,0.28676867,-0.04971112,-0.2939606,-0.47958398,0.33851868,-0.7253723,0.9838367,-2.0064309,0.44240665,0.80564487,0.92529106,0.85318375,0.016936917,0.49844345,0.7209372,0.8668996,0.81566393,0.78035635,0.77794003,0.6400719,0.5897429,0.8701364,0.3302818,0.30262578,0.6547265,0.7740416,0.63423467,0.14576195
1.0,0.65023685,0.33138958,0.3186587,0.68651783,-0.8009075,0.2958216,-0.17168908,0.7013932,-0.1796956,-0.6249701,-0.21327418,-0.8813982,-0.5203695,-0.2049626,1.137363,-1.2871143,-1.1179295,0.49727675,-0.6741358,0.14743073,0.6548264,0.7588712,0.6996413,0.8195136,0.045264956,0.74492913,0.77119744,0.6726485,0.84854186,0.7302836,0.8779686,0.68085897,0.71465003,0.85139793,0.7831606,0.37502828,0.6817549,0.7309936,0.7417727,0.10265345
1.0,-0.1702834,-0.10555146,-0.0075168163,0.09974843,-0.8274426,-0.084301285,-0.19287774,-0.15140875,-0.19728369,0.0138710365,0.12279318,-0.041564863,-0.22187933,0.038968164,0.4914753,-0.3379466,-0.13611543,-0.13411611,0.016431324,-0.8396832,0.64676684,0.78865176,0.82130516,0.85906833,0.031609826,0.78456795,0.82276934,0.8183685,0.90686476,0.76127017,0.85041684,0.77992946,0.7674733,0.87356764,0.75030655,0.40667164,0.64183325,0.7738894,0.79936206,0.11734077
1.0,-0.13995971,-0.1420008,-0.09048372,-0.09692752,-0.5188488,-0.009234291,-0.15472923,-0.28652868,-0.12869671,0.19575022,0.102017544,0.18066646,-0.25977704,0.20784299,0.28176844,0.10190965,0.18844646,-0.13397865,-0.056230567,-0.6322455,0.64693,0.82598376,0.8560847,0.85010093,0.020552376,0.7718309,0.8383273,0.84514475,0.8976323,0.75394017,0.8786573,0.7673904,0.8120219,0.848449,0.6361405,0.38726223,0.6316379,0.799507,0.7538944,0.11639926
1.0,0.3017828,0.14448047,0.12835549,0.35502416,-0.7472876,0.15948775,-0.2033809,0.25282902,-0.20406745,-0.27920723,-0.05895149,-0.4324139,-0.4166856,-0.030832801,0.7694623,-0.76472914,-0.5845814,0.2182,-0.39601767,-0.2506212,0.66919416,0.78208745,0.7540155,0.8416616,0.033408783,0.76210076,0.8326043,0.74411154,0.8606348,0.7471753,0.89395404,0.7329547,0.75421584,0.8487292,0.74286455,0.38048607,0.6404339,0.76269,0.76344675,0.10307776
1.0,-0.18703422,-0.024699504,0.025913388,0.05928544,-1.3147523,-0.17575414,-0.060892645,-0.088231474,-0.08363351,-0.04752534,0.0830754,-0.022630885,0.13158228,-0.082507044,0.14619368,-0.26219037,-0.08408824,-0.139138,0.19835162,-0.5516575,0.6611558,0.7901146,0.82218677,0.8858173,0.04580458,0.8535289,0.8330476,0.8169216,0.96327716,0.79116577,0.84591556,0.7674662,0.8092605,0.8981055,0.82133377,0.482247,0.68910086,0.7480102,0.84751064,0.11554122
1.0,-0.51156783,-0.18249367,-0.12595657,-0.15169206,-0.009976063,-0.2171019,-0.3821303,-0.57784843,-0.21516743,0.28208947,0.2832045,0.16774058,-0.1599198,0.08044066,0.22950713,-0.06760898,0.20431021,-0.40024835,0.28778052,-1.5113311,0.58613366,0.80745095,0.85591197,0.8441573,0.013211826,0.7197599,0.77016336,0.8647664,0.8902796,0.75242865,0.8510991,0.73588467,0.7753036,0.86377907,0.4743146,0.30218232,0.64297634,0.76602703,0.70058,0.11172277
1.0,-1.9477932,-0.16087186,0.70786726,0.4417212,1.0857005,-0.9741464,-0.6927989,-0.7398723,-0.8921392,-0.12702356,0.59937745,-0.3633596,0.8981909,-0.6404387,-0.17282291,-2.1602247,-0.35563752,-1.0886464,1.1483471,-2.8342187,0.4261102,0.7504892,1.0833834,0.7227345,0.048801824,0.6613685,0.75234365,0.7227808,0.8023092,0.8327054,0.7526932,0.908116,0.5100828,0.7439691,0.42928338,0.23835906,0.66253567,0.71825415,0.6977364,0.17390426
1.0,0.14414534,-0.31173062,-0.1130014,-0.28253073,-1.3395888,0.09621981,0.2976519,-0.012149034,0.2685455,0.074816644,-0.06064064,0.5515987,0.36775547,0.3166655,-0.5413907,0.89829946,0.5810419,0.28721517,-0.01741343,0.9191665,0.69443697,0.8166214,0.97613746,0.9404261,0.037366122,0.90852666,0.81731975,0.8745271,0.9463598,0.87276304,0.757363,0.90634173,0.8872404,0.95250577,0.8364114,0.53418237,0.75398105,0.73534214,0.8424934,0.120767765
1.0,0.5990467,0.25572795,0.20982817,0.5225023,-0.9826206,0.29498595,-0.0027447864,0.60734403,-0.101751745,-0.5200653,-0.2107335,-0.69009495,-0.37442195,-0.14023717,0.8547041,-0.8676329,-0.8178248,0.44143295,-0.58814675,0.39088184,0.6643155,0.7766406,0.7156142,0.84040755,0.04134474,0.7553779,0.80725086,0.7186323,0.867932,0.73791903,0.8566433,0.7147978,0.75256974,0.8310476,0.81209236,0.42639023,0.6520763,0.73349744,0.76430464,0.105677925
1.0,1.397316,0.4225072,0.37063622,0.71160746,-0.9380815,0.5302695,0.11913343,0.9392562,-0.0042616874,-0.6299075,-0.6648253,-0.80648625,-0.49398425,0.09198748,0.58199143,-0.6938453,-0.74449205,0.9471184,-1.2245445,1.9931998,0.7922189,0.81893766,0.8701326,0.82157093,0.042434286,0.84758866,0.80796534,0.6962322,0.8496025,0.76755923,0.98513764,0.71148324,0.8208234,0.8076455,0.70879287,0.44752267,0.64423925,0.802136,0.7168509,0.098020285
1.0,-0.171264,-0.08797009,-0.0119550675,-0.016558498,-0.9252248,-0.10453357,-0.15602604,-0.21214761,-0.15517834,0.09741341,0.09649584,0.11359517,-0.10818153,0.09138628,0.20939057,-0.13089615,0.073729485,-0.14622469,0.05373607,-0.6523873,0.67048043,0.81477726,0.8585103,0.87045544,0.031452965,0.81946504,0.8601343,0.83169615,0.9158188,0.76568145,0.8757075,0.7883276,0.8128987,0.8682276,0.74183375,0.43508342,0.64089334,0.79336524,0.81419754,0.11451015
1.0,0.21896893,0.15460753,0.28101334,0.6357006,-0.09403171,0.15874308,-0.517874,0.3156361,-0.40364274,-0.51085985,0.05019074,-0.7567684,-0.68591017,-0.17092445,1.3951795,-1.5505385,-1.136536,0.28354362,-0.46734446,-0.9387722,0.62250036,0.7336468,0.7434376,0.7977601,0.035619687,0.6806467,0.7590837,0.6546526,0.80054206,0.72914994,0.8641455,0.68606806,0.67449015,0.8820226,0.6735286,0.28073597,0.7327761,0.75042546,0.6936573,0.109462045
1.0,-0.30090576,-0.1059775,-0.017244197,-0.060883842,-1.1608479,-0.19818704,-0.0969512,-0.23720574,-0.10110614,0.087690316,0.14253813,0.15400429,0.108485825,-0.0118472455,0.06989761,-0.083071664,0.100660436,-0.22051947,0.24350813,-0.71734035,0.6557284,0.80194074,0.8461343,0.893795,0.03817691,0.84591204,0.8458772,0.8376641,0.94691366,0.7827835,0.8384991,0.79150647,0.82449734,0.89275837,0.782361,0.47182524,0.66384274,0.7656148,0.8363968,0.1176097
1.0,-0.19794218,-0.22688402,-0.093950175,-0.22261871,-1.161246,-0.119843744,0.014414825,-0.26237532,0.055685937,0.18850806,0.10991701,0.3839628,0.22473562,0.16991983,-0.20241602,0.3910534,0.40437213,-0.084056325,0.20266658,-0.09925337,0.6592674,0.80820805,0.91485155,0.90038085,0.034980662,0.83897597,0.8436774,0.83228225,0.93647355,0.7891438,0.79537815,0.8310237,0.84922403,0.9124428,0.7770628,0.50768054,0.70478076,0.77776814,0.81148773,0.1203482
1.0,-0.14669828,-0.0084093865,0.03550351,0.046386734,-0.9576621,-0.086939394,-0.15566824,-0.10603418,-0.1699811,-0.012387181,0.097459495,0.0048009735,-0.05535864,-0.0099585345,0.25596106,-0.31702027,-0.08511884,-0.11114807,0.036145456,-0.65461993,0.6585804,0.804363,0.8169927,0.87296593,0.033560056,0.814734,0.84934765,0.8123,0.91768724,0.7657599,0.87432534,0.78000516,0.80569065,0.87000144,0.75321233,0.42988312,0.6300696,0.76601326,0.8138301,0.11046943
1.0,-0.21019179,0.14072083,0.20001498,0.2959339,-1.1211729,-0.1860604,-0.24738657,0.13429266,-0.19476233,-0.27245578,0.12675616,-0.350088,0.09872798,-0.29480046,0.46821946,-0.9868748,-0.54758626,-0.098434396,0.19390929,-1.0051817,0.6039518,0.7388423,0.7626528,0.8533307,0.050104406,0.811,0.76437676,0.75016725,0.9654465,0.7604588,0.83756834,0.7187506,0.7347462,0.93085515,0.77632,0.40355843,0.6986461,0.7089951,0.8235506,0.10746738
1.0,0.77896875,0.37314183,0.29378703,0.63781655,-0.92032915,0.36099067,-0.043243583,0.7577357,-0.11120726,-0.618569,-0.2973038,-0.8416603,-0.4590082,-0.15996423,0.94667274,-1.0846845,-0.9929274,0.5519128,-0.7631868,0.56420267,0.67135864,0.7816792,0.7065187,0.83052874,0.044111896,0.75819147,0.7978819,0.68809193,0.8617893,0.7353247,0.90131724,0.6895522,0.748787,0.8274827,0.7888001,0.40836334,0.660805,0.7409184,0.74547714,0.10049388
1.0,-0.27817792,-0.11662363,-0.06769336,-0.100314364,-0.26117104,-0.10020813,-0.32177946,-0.40079916,-0.20102903,0.23154642,0.19097531,0.15072723,-0.21691105,0.13327223,0.28917852,-0.07418907,0.14685734,-0.23014064,0.08124042,-1.09243,0.6251343,0.81045204,0.85542446,0.8424562,0.016566722,0.7596526,0.79992676,0.84306175,0.8864328,0.75304943,0.87540925,0.74565005,0.8021453,0.8566445,0.5465761,0.33414996,0.6357787,0.7812872,0.7262906,0.10840356
1.0,-0.3091413,-0.16624682,-0.04270997,-0.0797457,-0.77589107,-0.11651234,-0.08592047,-0.24487597,-0.12111921,0.09420152,0.17562279,0.18730216,-0.017842859,0.06472914,0.24777266,-0.01681773,0.123568065,-0.19615425,0.13108528,-0.7785705,0.62365836,0.7939077,0.81591827,0.87093276,0.026921168,0.7817375,0.8197214,0.84176475,0.9041671,0.7551908,0.81025684,0.79189205,0.77902687,0.8903579,0.7304008,0.4216266,0.6295301,0.7492911,0.8033594,0.11949326
1.0,-0.1452623,-0.17599127,-0.09810912,-0.18345912,-0.7474881,0.0045733564,0.014779329,-0.20216377,-0.013003819,0.13674049,0.106909275,0.30840877,0.0448955,0.17933361,0.014882246,0.32184252,0.31790388,-0.048072286,0.0044430867,-0.13854986,0.6356648,0.80874014,0.85292006,0.86725646,0.023671126,0.7841985,0.8313868,0.8294836,0.89813966,0.7579501,0.81467783,0.81403655,0.80829495,0.8829828,0.7083617,0.44352615,0.630125,0.76215655,0.77963537,0.116917714
1.0,-0.14431156,-0.18436562,-0.08281883,-0.07136619,-0.9466237,-0.05295938,-0.03146612,-0.1915216,-0.057663064,0.098552674,0.09591231,0.18562672,-0.023898669,0.13898902,0.15938857,0.1261322,0.17324698,-0.077844925,0.03842563,-0.29867524,0.65358126,0.80306363,0.8616296,0.87228245,0.030669613,0.79879624,0.8355739,0.82842326,0.9109218,0.76649547,0.821259,0.8172899,0.8017091,0.88642734,0.7679973,0.4583494,0.6580854,0.7770434,0.80153835,0.11967868
1.0,-0.24724303,-0.10061819,-0.0053342953,0.013617218,-0.8762612,-0.115652554,-0.14967604,-0.18634985,-0.17122573,0.037506163,0.15039568,0.065283485,-0.07843534,0.016977709,0.32345146,-0.2315988,-0.025004871,-0.17235519,0.09609497,-0.83056337,0.641667,0.7960787,0.8159442,0.8738099,0.031062344,0.79623485,0.83227277,0.8265379,0.9127763,0.7615408,0.84115475,0.78804594,0.7862264,0.88005495,0.75073653,0.42349485,0.6319538,0.7609924,0.8114494,0.116076775
1.0,-0.36302745,-0.2463824,-0.087670855,-0.19245079,-0.9363349,-0.18587974,-0.08336545,-0.3845713,-0.061744932,0.24866173,0.16929437,0.35600573,0.03714469,0.14135413,0.024949599,0.23680146,0.35266533,-0.25609583,0.2412295,-0.72092915,0.6445313,0.80784166,0.886563,0.8859138,0.029911822,0.81636494,0.8475735,0.8592269,0.92725456,0.766402,0.8113635,0.80485636,0.8274606,0.8906608,0.7277239,0.46222046,0.6651605,0.79479307,0.80196005,0.12580541
1.0,0.12540145,0.1589531,0.09344348,0.10258694,-1.3691899,-0.040881492,-0.0074739233,0.13006142,-0.030724514,-0.1473096,-0.05335375,-0.13088629,0.15804826,-0.09902563,-0.0071944557,-0.31413448,-0.1652455,0.0549409,-0.044839256,0.05585131,0.6840193,0.8184073,0.8265326,0.8963372,0.04741885,0.870556,0.8542477,0.7927198,0.96126896,0.80583,0.90296763,0.76135486,0.87111336,0.85998595,0.8096303,0.49515596,0.6690222,0.7528165,0.8284854,0.1050136
1.0,-0.070737645,0.11238999,0.10391042,0.15302943,-1.3450902,-0.1376053,-0.08578344,0.060563743,-0.10087888,-0.15688825,0.030256256,-0.17798088,0.12719262,-0.16791165,0.17895006,-0.511002,-0.2671481,-0.070618756,0.10690818,-0.47234774,0.6618825,0.7908483,0.79974157,0.88251626,0.04958728,0.8587322,0.83010966,0.791846,0.972506,0.79251647,0.87955594,0.7445866,0.8142923,0.8852729,0.8122504,0.47068667,0.6780176,0.7408227,0.84211314,0.10919145
1.0,-0.27125323,-0.13860293,-0.1041766,-0.19604096,-0.3165858,-0.06539991,-0.2105644,-0.41185835,-0.12141556,0.29129517,0.1616301,0.2625612,-0.16146848,0.18230644,0.1289513,0.19777249,0.30851418,-0.22999911,0.07409901,-0.85523,0.6229569,0.82479364,0.8595998,0.84805995,0.015841115,0.7723406,0.8133781,0.8662795,0.9002243,0.74867684,0.8726984,0.7501295,0.82272685,0.8488096,0.54977673,0.35572603,0.6265192,0.785816,0.7280833,0.11320258
1.0,0.117803454,0.16977443,0.18255201,0.35776228,-1.237081,-0.014712401,-0.06129041,0.3142783,-0.11446194,-0.37557748,-0.02938027,-0.45073518,-0.031816892,-0.21770996,0.5503319,-0.81310654,-0.58767146,0.108674295,-0.078609996,-0.33723983,0.6420875,0.7635734,0.7381426,0.8556904,0.049592078,0.80111426,0.7986737,0.7493787,0.93834156,0.75346386,0.84093654,0.7105463,0.7553048,0.8881603,0.8247462,0.44861692,0.692924,0.7192728,0.8179287,0.11039572
1.0,-0.13001332,-0.008292904,0.019793242,0.023319982,-1.4190676,-0.16715235,-0.016409526,-0.071218275,-0.029526696,-0.042243153,0.05309502,0.013586703,0.21867329,-0.06925007,-0.0034167878,-0.15148762,-0.01989121,-0.09690998,0.1969854,-0.316132,0.6722173,0.79778886,0.84280443,0.89534444,0.04859201,0.87312746,0.8393156,0.8181891,0.97209895,0.80771995,0.8495469,0.77156734,0.83922637,0.8960281,0.83116287,0.5072499,0.70363003,0.74811614,0.84939396,0.11386645
1.0,-0.14367132,-0.030878713,0.008681506,0.0006795749,-1.3660628,-0.15695214,-0.009092162,-0.086330354,-0.02594272,-0.03168255,0.06527175,0.047217943,0.21772137,-0.04943532,-0.0006377697,-0.106657565,0.011630597,-0.09255207,0.19260481,-0.31036532,0.6680896,0.79658717,0.8401447,0.8944726,0.04586486,0.8629631,0.83846,0.8181315,0.9623489,0.80318683,0.8403332,0.7766957,0.8332808,0.89964825,0.824072,0.50308836,0.69853413,0.7455368,0.8456155,0.11399955
1.0,-0.124046475,-0.06339623,0.0054625645,0.069969766,-1.0391642,-0.07539265,-0.08799957,-0.08153826,-0.13145787,-0.033105716,0.084102675,-0.020535056,-0.06152215,-0.0013860948,0.32276222,-0.250095,-0.09613598,-0.08717612,0.03665825,-0.5385878,0.65690863,0.79611796,0.8117936,0.87340844,0.035925496,0.80819595,0.8382066,0.8125197,0.9199393,0.7663074,0.84383017,0.7846855,0.7896262,0.8792148,0.7914353,0.44768155,0.6501295,0.7604049,0.82074434,0.11570261
1.0,0.7628124,0.42030615,0.33954558,0.63279605,-1.1637241,0.3023888,0.08713198,0.8409876,-0.04132694,-0.7202744,-0.30312937,-0.84786433,-0.22634932,-0.25497305,0.76456684,-1.0739435,-0.9663821,0.56960064,-0.6484824,0.65853596,0.66323495,0.76200855,0.7074529,0.83632004,0.050132986,0.7667721,0.7863936,0.70192415,0.8888301,0.7404441,0.86627585,0.6670084,0.7648314,0.8310453,0.80933654,0.45464033,0.6682884,0.71501285,0.7658786,0.103453316
1.0,-0.40791613,0.005172055,0.11797319,0.18162975,-0.8557343,-0.2282583,-0.313801,-0.085917436,-0.25711322,-0.12535252,0.24226525,-0.17524026,0.04632974,-0.21752612,0.4653822,-0.82589376,-0.37463978,-0.23051684,0.28187287,-1.3582718,0.5883828,0.7381602,0.7839407,0.859004,0.038374845,0.7834842,0.7659083,0.7850888,0.9365408,0.75915545,0.81690747,0.75511545,0.73031807,0.92201865,0.73009485,0.37608713,0.6627576,0.713249,0.80954456,0.110016786
1.0,-0.27552703,-0.07226788,-0.048901938,0.029671356,0.10506873,-0.058839906,-0.3843333,-0.32538652,-0.24555334,0.048898436,0.2077274,-0.10886799,-0.31344962,0.03309659,0.5623495,-0.44202733,-0.14960414,-0.21692337,0.042304732,-1.287021,0.58376265,0.79447377,0.8105643,0.8167645,0.015676133,0.6800118,0.7645174,0.78482985,0.8721557,0.74426144,0.85503703,0.6969228,0.73213917,0.85127693,0.48589587,0.2897038,0.65537465,0.7619641,0.6742298,0.1123888
1.0,0.14521776,0.07851384,0.0738488,0.08992046,-1.4360758,-0.02449404,0.11099689,0.16871098,0.05049078,-0.2238619,-0.062497802,-0.08181959,0.28510663,-0.057917774,-0.07183917,-0.14584067,-0.10224112,0.15956558,-0.021510191,0.30947405,0.67907333,0.7900489,0.84185475,0.88932174,0.04849192,0.859887,0.8231923,0.8001101,0.94925416,0.81414026,0.8433103,0.7641774,0.8490484,0.89656454,0.82583785,0.5201188,0.70374566,0.7292115,0.8280692,0.108154885
1.0,-0.56283957,-0.20552808,-0.12521532,-0.11271923,0.024265224,-0.25215685,-0.41969377,-0.59214306,-0.24362594,0.24745895,0.30210793,0.13021855,-0.18805403,0.070890404,0.29728988,-0.18036138,0.14949399,-0.42931545,0.32791215,-1.6642722,0.5821308,0.806756,0.8600051,0.84226406,0.013945888,0.7010992,0.76652354,0.85182047,0.88861257,0.7561366,0.8508078,0.73300594,0.7547563,0.87237304,0.47764716,0.29708415,0.66042835,0.7669166,0.70373166,0.11375462
1.0,0.7841355,0.37690315,0.3364298,0.7046876,-0.9066165,0.34988245,-0.054171722,0.8026304,-0.12694396,-0.6741476,-0.30886105,-0.9142808,-0.4832028,-0.18178305,1.0473032,-1.2023364,-1.0792959,0.5706135,-0.77252716,0.508835,0.6673517,0.77098733,0.708709,0.8152661,0.046938736,0.75481343,0.77645475,0.6794217,0.8618152,0.72880846,0.8893675,0.6754588,0.7244256,0.83566236,0.79144496,0.4056006,0.66989243,0.7365058,0.7461854,0.103329696
1.0,0.23083273,0.26228634,0.19650227,0.2882986,-1.4133737,-0.0056268796,0.035341736,0.35575047,-0.031687718,-0.3847715,-0.097970076,-0.38045478,0.15218824,-0.21365632,0.22167735,-0.64994895,-0.45164612,0.16217206,-0.10305091,0.04550703,0.6685327,0.78048193,0.76894706,0.87516886,0.053539235,0.84288234,0.82226866,0.76210576,0.96260804,0.78476423,0.87877786,0.7039029,0.8166461,0.87071586,0.8229413,0.4943219,0.68788743,0.7209135,0.82970643,0.10555335
1.0,0.04900492,-0.1328693,-0.082526185,-0.19432274,-0.7815961,0.059075523,-0.030144082,-0.18829753,0.0037478209,0.2265019,0.0023244545,0.34930494,-0.082428835,0.3259435,-0.099187255,0.40727586,0.43833062,0.035158,-0.11501961,0.159346,0.6860094,0.8469634,0.92062795,0.87257236,0.0239699,0.8150576,0.88771164,0.81868905,0.9098839,0.753865,0.8804466,0.8077226,0.8510406,0.85522336,0.68772465,0.45837685,0.65460205,0.82289577,0.7798448,0.11302469
1.0,-0.59727216,-0.17016175,0.031243354,0.10469037,-0.5593407,-0.30029136,-0.39619312,-0.31971335,-0.2951022,0.042469017,0.35031343,-0.042023808,-0.08151174,-0.1038103,0.5807205,-0.6786968,-0.21942458,-0.38702738,0.38188446,-1.8085122,0.5643475,0.7303777,0.8188984,0.854074,0.029784825,0.741596,0.7406855,0.8240365,0.9168907,0.76162636,0.78426325,0.76954645,0.70418864,0.9234528,0.6892791,0.34194043,0.6628624,0.72144336,0.7901563,0.1193527
1.0,-0.32173,-0.13310345,-0.02983749,-0.074105434,-1.2092096,-0.224872,-0.09161155,-0.27251157,-0.08695834,0.122050114,0.14020115,0.1774412,0.11310321,-0.00020443462,0.042527113,-0.033197023,0.14013758,-0.24487312,0.27936846,-0.73131585,0.658912,0.8002482,0.8625269,0.8945902,0.03961831,0.85579526,0.84560114,0.84669816,0.9536834,0.78840864,0.83459336,0.7911432,0.82873315,0.89555913,0.78521883,0.478523,0.6758946,0.77306116,0.83925706,0.11997575
1.0,0.14394972,0.20270866,0.17243645,0.26392955,-1.4814326,-0.06941782,0.042253386,0.27096933,-0.031607036,-0.33723184,-0.07891699,-0.31793892,0.18614042,-0.18366654,0.1712773,-0.56828237,-0.36041212,0.10156747,-0.010618992,-0.057161793,0.6747849,0.7751279,0.80249393,0.86748254,0.05658215,0.85924447,0.8173908,0.783888,0.9786664,0.7927517,0.86917645,0.7064487,0.8101052,0.8801375,0.8370288,0.5098576,0.7022383,0.72924644,0.8462352,0.1105582
1.0,-0.24457426,-0.13331836,-0.038839035,-0.045735255,-1.1657308,-0.17026153,-0.071433485,-0.22171804,-0.081161335,0.09061857,0.11569327,0.14224657,0.06313751,0.032000154,0.10765917,-0.03138629,0.1077067,-0.18300314,0.19069663,-0.5824091,0.6612539,0.803163,0.8586137,0.88792515,0.038779918,0.8406625,0.84275776,0.83679926,0.94494635,0.7868435,0.83570904,0.79792833,0.8191771,0.8916776,0.79632026,0.47594413,0.67512697,0.7725998,0.8336818,0.11978435
1.0,-1.2296882,-0.3149869,0.0017315745,0.038567267,0.5193057,-0.6065393,-0.47410265,-0.6513048,-0.32403272,0.07045654,0.47730625,0.011911993,0.036947433,-0.07910864,0.22257699,-0.8567202,0.01589688,-0.80345386,0.88526785,-2.6016018,0.4500101,0.7926345,0.9323385,0.8386038,0.019854901,0.53334874,0.69074124,0.8405154,0.84065825,0.7732748,0.7338411,0.6928133,0.5932604,0.8672869,0.4587224,0.2758865,0.7087158,0.72481734,0.69711864,0.14762604
1.0,-0.35335127,-0.1346467,-0.07316529,-0.12201738,-0.33185413,-0.13485546,-0.30917695,-0.42897555,-0.19730605,0.24549378,0.22074653,0.18897098,-0.17162341,0.115333326,0.25513318,-0.05410759,0.17668906,-0.27324912,0.14391178,-1.1890349,0.61554366,0.80630744,0.8538571,0.8508748,0.017511383,0.7591399,0.8053936,0.8560514,0.894751,0.7554784,0.8665964,0.75638986,0.8050277,0.85739136,0.5695041,0.34538066,0.6286471,0.77642417,0.7357252,0.11084911
1.0,-0.23199445,-0.108419485,-0.028506577,-0.055467263,-1.2266922,-0.17300442,-0.056461345,-0.20176083,-0.06255902,0.074920915,0.1090552,0.14434136,0.12339404,0.0121168345,0.041674614,-0.02395371,0.11074155,-0.16841765,0.20801246,-0.5117444,0.66362095,0.80439806,0.85650057,0.8934743,0.04032489,0.8502839,0.84598464,0.83268034,0.95026964,0.7912421,0.8367504,0.7950728,0.82954454,0.89399046,0.8016682,0.48635077,0.68017817,0.76648295,0.837841,0.11788314
1.0,0.23367736,0.1254632,0.0720238,0.13075577,-1.3517569,0.02505989,0.026568625,0.17426175,-0.0068708435,-0.15834816,-0.10019957,-0.14550544,0.097608976,-0.03584281,0.018360367,-0.23290384,-0.15221834,0.1476207,-0.15223265,0.31593335,0.6903055,0.81809384,0.8496321,0.8910524,0.04603529,0.8623395,0.8454672,0.794773,0.94638383,0.806132,0.89559317,0.7790229,0.86813575,0.8595605,0.8181438,0.49676305,0.676354,0.7634015,0.8168597,0.10528665
1.0,0.059856743,0.13192177,0.102355264,0.1753139,-1.302191,-0.05848315,-0.059085958,0.12531538,-0.08897413,-0.18043947,-0.019014426,-0.2080953,0.05631919,-0.13005209,0.20708925,-0.47628742,-0.28583595,0.016811183,-0.024729691,-0.22603932,0.67197824,0.80101603,0.79875404,0.88112247,0.046896353,0.84828395,0.8404229,0.78518397,0.952354,0.78765124,0.8898928,0.75103045,0.82593447,0.869487,0.811769,0.47024736,0.66962934,0.7489459,0.82882106,0.10749626
1.0,-0.03998909,-0.051288508,-0.006882496,0.06520092,-1.1434355,-0.059049286,-0.063606724,-0.065577455,-0.09587174,-0.010351576,0.032065786,-0.015190611,-0.050349303,0.03124901,0.2260726,-0.16906375,-0.049473323,-0.046413995,-0.004064642,-0.3000974,0.6749782,0.80739164,0.8453278,0.8754532,0.0388177,0.8290896,0.8479388,0.8150044,0.9313716,0.78075516,0.8623507,0.7933761,0.81421983,0.86997116,0.8049995,0.466957,0.6626415,0.7771387,0.82198334,0.11501608
1.0,-0.14250861,-0.32569286,-0.1837652,-0.36025378,-0.70095,0.012184795,0.035672598,-0.35077098,0.1119234,0.37249476,0.08165401,0.588254,0.05659258,0.40276742,-0.2842041,0.8097526,0.7108939,-0.041386493,0.06463609,0.17177986,0.6478169,0.81449383,0.9526857,0.86528045,0.020638673,0.80192465,0.85140795,0.83272016,0.92942643,0.7572202,0.81633353,0.8261649,0.8334301,0.8893329,0.6523344,0.45889878,0.6792244,0.8150683,0.7503682,0.12654626
1.0,0.12492761,-0.2872936,-0.15685567,-0.3230242,-0.9744009,0.12628448,0.11802,-0.14253654,0.18861073,0.26705086,-0.01889205,0.5870014,0.1351546,0.43561634,-0.43197867,0.87595725,0.70132035,0.1942751,-0.06790852,0.7682341,0.6875969,0.8306761,0.9879301,0.90694356,0.026424054,0.84975606,0.8654971,0.825996,0.93269455,0.79907787,0.81236064,0.88327575,0.8634824,0.9015426,0.74843395,0.5008896,0.7080781,0.79458874,0.7988839,0.11790737
1.0,-0.22186416,-0.17000514,-0.10211525,-0.25712448,-0.5272011,-0.031018287,-0.07384873,-0.34473237,-0.046402622,0.27825537,0.11595185,0.3831997,-0.043386467,0.23954192,-0.056412153,0.3989956,0.44584358,-0.15947823,0.039058663,-0.4184835,0.63430166,0.83765167,0.8767535,0.8585313,0.018623896,0.78870195,0.842481,0.8546297,0.90855306,0.74046904,0.85872287,0.7823323,0.83872277,0.8548498,0.60775787,0.41127014,0.6263788,0.79846925,0.7472778,0.11762446
1.0,-0.18022293,-0.047107384,0.017856501,0.07065812,-1.2793584,-0.16681269,-0.06276319,-0.09420443,-0.09222854,-0.040874057,0.07951258,-0.02786566,0.082025535,-0.061629124,0.19995594,-0.25803253,-0.08784401,-0.13581388,0.17466393,-0.56513673,0.6622598,0.78925776,0.8259398,0.8801426,0.04487925,0.8462458,0.8311382,0.81990284,0.9573806,0.78873086,0.8426916,0.77044743,0.8018924,0.8962912,0.8218684,0.4769643,0.6877613,0.752732,0.844635,0.11743195
1.0,-1.135535,-0.05406846,0.35428852,0.2242341,1.7881569,-0.66375476,-0.16183437,-0.18598424,-0.22437248,-0.15710264,0.23394191,-0.09791271,0.45583004,-0.23123287,-0.21115643,-1.1298394,-0.024772808,-0.52461886,0.7282006,-1.6315747,0.40066934,0.82004994,0.87058806,0.80970407,0.023828113,0.42218667,0.7222201,0.78319526,0.72891,0.71877515,0.86371946,0.6138494,0.6125661,0.8188878,0.296249,0.24948153,0.6993256,0.7579508,0.5252907,0.15191138
1.0,-0.2453509,-0.14197375,-0.045671128,-0.070911214,-1.1653914,-0.16626364,-0.060010508,-0.22803971,-0.06440295,0.09910744,0.12021371,0.1740325,0.09498044,0.04433737,0.06287607,0.019468183,0.14483756,-0.17259862,0.19780678,-0.5237189,0.65974194,0.8043594,0.862037,0.8908645,0.03821779,0.8393003,0.84340334,0.8347079,0.9423318,0.7856815,0.82976073,0.80220544,0.8236888,0.8951245,0.79402924,0.48119473,0.67793095,0.7717731,0.8311759,0.1193972
1.0,-0.42108178,-0.2085116,-0.05699759,-0.098537624,-0.9702004,-0.23717047,-0.13439626,-0.3583152,-0.12505919,0.17786121,0.20139262,0.23335378,0.01910451,0.039564807,0.16759637,-0.008260658,0.17870647,-0.3085654,0.2861664,-1.0142764,0.63615686,0.7926821,0.8556377,0.88940394,0.03273265,0.82189894,0.82635736,0.86297214,0.93265647,0.7765969,0.81613886,0.79736906,0.8045473,0.899827,0.7488056,0.44286087,0.6590963,0.77216524,0.8221294,0.1238676
1.0,-0.19713023,-0.15906686,-0.12601846,-0.19702812,-0.30933887,-0.037684232,-0.20934907,-0.41834524,-0.0984004,0.32826644,0.12059272,0.26888585,-0.23254418,0.24096903,0.13977517,0.27391413,0.34008014,-0.19677484,0.032914527,-0.7337572,0.64409477,0.8303755,0.87773097,0.8444811,0.015635895,0.7836849,0.82053053,0.8629157,0.9050595,0.758055,0.88558865,0.7412734,0.82517874,0.8505888,0.5401727,0.35343048,0.6451485,0.8004713,0.72605044,0.11470897
1.0,0.0061350428,0.124456696,0.15950905,0.32015833,-1.1901878,-0.06956402,-0.12735122,0.20898363,-0.14920348,-0.29853776,0.020788372,-0.3852953,-0.043201335,-0.20409268,0.5384055,-0.8048836,-0.535925,0.02379184,-0.006439306,-0.5636404,0.6387894,0.7642235,0.755172,0.8555724,0.048587848,0.80712867,0.79534316,0.7581898,0.94274706,0.7593725,0.847617,0.7233914,0.7520882,0.8967171,0.8132784,0.43375778,0.6884893,0.7274487,0.82035905,0.11109914
1.0,0.78854924,0.35636163,0.30797014,0.67988575,-0.7765425,0.37111276,-0.12524872,0.7323247,-0.15908752,-0.6143545,-0.29412812,-0.8753622,-0.57667226,-0.12247005,1.0939152,-1.1812867,-1.0596962,0.562682,-0.81199324,0.4439003,0.67791164,0.7773629,0.71039385,0.8162001,0.04296869,0.7522232,0.79212415,0.6748085,0.84552735,0.731376,0.91074157,0.6817572,0.7258258,0.8355245,0.7691283,0.38237673,0.6693338,0.74987185,0.734465,0.10074634
1.0,-0.26947373,-0.056795694,0.027750961,0.047809348,-0.88893455,-0.14158367,-0.20174164,-0.16921966,-0.20144421,0.004717535,0.16397816,0.016408455,-0.050745048,-0.03497911,0.3230925,-0.3714999,-0.0986326,-0.18293525,0.12772903,-0.9404184,0.63859224,0.78735125,0.81210226,0.87131816,0.03238135,0.802359,0.8259541,0.81855786,0.9160445,0.7623633,0.85088146,0.7816573,0.78359026,0.8853532,0.74170494,0.4126797,0.63140947,0.7555191,0.81236887,0.11255777
1.0,-0.35348848,-0.19732456,-0.06414937,-0.15396352,-1.2170852,-0.23395742,-0.051911145,-0.322764,-0.026169673,0.17250459,0.1578645,0.2839207,0.19226137,0.040809847,-0.06494565,0.15628219,0.266837,-0.24093543,0.33332708,-0.61913186,0.6518719,0.79694194,0.87855893,0.90117806,0.03886759,0.8515969,0.84210414,0.8482519,0.9506257,0.7855571,0.804227,0.79871356,0.8387658,0.90908545,0.77551585,0.49644297,0.6970043,0.77544075,0.82692516,0.12280771
1.0,0.012867035,0.12509951,0.08337908,0.08326118,-1.4945301,-0.12412156,-0.005436441,0.06488195,-0.022404253,-0.12970473,-0.014299907,-0.0990724,0.24564606,-0.12993555,-0.054141387,-0.2954869,-0.1305379,-0.022493193,0.103786565,-0.12323643,0.6832951,0.8072836,0.8340709,0.900293,0.052879214,0.8908422,0.8470843,0.8042686,0.98424137,0.815676,0.8852377,0.75328696,0.8659824,0.8761544,0.83121574,0.5140061,0.6929182,0.7455568,0.8501989,0.1084819
1.0,-0.1780232,0.0067351256,0.031274773,0.016095519,-1.3077472,-0.16850425,-0.069046706,-0.09705437,-0.07991203,-0.020188231,0.081961736,0.018526796,0.16516948,-0.08599861,0.045397554,-0.22726426,-0.04024466,-0.14273126,0.18930164,-0.50385195,0.66447324,0.8029269,0.82778764,0.8959057,0.044380642,0.8635019,0.84611523,0.8171484,0.9656284,0.7958363,0.8618081,0.7734164,0.83553565,0.8860783,0.8060256,0.48492122,0.6728677,0.7515238,0.8436592,0.11240271
1.0,-0.3389023,-0.13237825,-0.117125385,-0.15194044,0.0034689829,-0.114193715,-0.3324335,-0.4828147,-0.17814505,0.26812646,0.21599577,0.14824738,-0.19708624,0.109138936,0.23181191,0.012479799,0.19004866,-0.29670513,0.1457394,-1.1739144,0.6039496,0.8166614,0.84661657,0.8368813,0.012795793,0.74259686,0.7741021,0.84973925,0.8892395,0.7546529,0.86238176,0.72534734,0.7855828,0.85333586,0.46724045,0.30368087,0.6328521,0.76687264,0.6934154,0.11021544
1.0,-0.20176253,-0.17438197,-0.06547622,-0.11807337,-1.378736,-0.18596004,0.029187914,-0.21285687,0.0469487,0.09842153,0.08204006,0.2340427,0.26905942,0.06757672,-0.15160078,0.21634354,0.24437797,-0.104246445,0.26138073,-0.1746116,0.6676338,0.7940675,0.9033305,0.8961183,0.044316348,0.8683067,0.82941157,0.8401136,0.9584936,0.8130278,0.8055995,0.8064574,0.8441243,0.9222532,0.816671,0.51820624,0.73326856,0.7625689,0.8351555,0.120028906
1.0,0.039993733,0.05607739,0.049237955,0.060263433,-1.336485,-0.052526668,0.022830121,0.069227114,-0.012183033,-0.13307208,-0.0028613508,-0.049551588,0.19400409,-0.05975371,0.018107435,-0.18526943,-0.09214679,0.04730802,0.025911577,0.010563239,0.67335916,0.80222017,0.82289374,0.8929459,0.044597592,0.8505592,0.84066045,0.79633194,0.9469379,0.7987227,0.85594714,0.7735747,0.8442092,0.8854018,0.81959254,0.49951583,0.68434227,0.7397546,0.8290249,0.108488575
1.0,0.18181325,0.13228063,0.105722934,0.13112077,-1.5405681,-0.044881444,0.114396065,0.21039927,0.053130627,-0.26223296,-0.09068989,-0.1396985,0.31181726,-0.09341316,-0.101892635,-0.22370838,-0.1485042,0.16356279,-0.0147848055,0.31882685,0.68834174,0.7900492,0.85041374,0.8911864,0.05448602,0.88022804,0.82431406,0.80287117,0.9680092,0.823093,0.85905296,0.747465,0.86164534,0.89056915,0.83722526,0.5351228,0.71432287,0.7325404,0.8377967,0.10825919
1.0,-0.66258407,-0.28793675,-0.09030976,-0.12166774,-0.49260643,-0.34083784,-0.33014885,-0.557738,-0.19618605,0.3064556,0.36287555,0.26229253,-0.06714968,0.01674397,0.31053442,-0.10431372,0.18123847,-0.4903714,0.4340981,-1.7535684,0.572654,0.75709957,0.8610137,0.8844924,0.0218484,0.75613034,0.7568316,0.90270543,0.9102279,0.7831479,0.78844845,0.7928422,0.77807146,0.9033891,0.63811207,0.35098636,0.64951205,0.7449464,0.7692337,0.12428646
1.0,-0.3063161,-0.14610548,-0.03693775,-0.044350322,-1.2548132,-0.22810043,-0.054815475,-0.24327198,-0.062121324,0.08409405,0.12884004,0.14003263,0.13277104,-0.004006407,0.08460945,-0.032807015,0.10622884,-0.22159795,0.28472373,-0.6668629,0.6567819,0.7888772,0.85612315,0.88822556,0.042171784,0.8526771,0.83144015,0.84539145,0.9570256,0.7944409,0.82153636,0.7852663,0.81192714,0.90890384,0.80667645,0.48307562,0.6971121,0.76123106,0.8446026,0.121843696
1.0,0.65808964,0.3069267,0.23301882,0.5462885,-0.97735214,0.3123069,-0.024513781,0.64625245,-0.103710696,-0.5382644,-0.23852295,-0.7258885,-0.39158475,-0.14989904,0.8466046,-0.92973155,-0.861685,0.46907213,-0.64155245,0.4511662,0.66881067,0.7824932,0.7128855,0.8425813,0.042154383,0.76062495,0.8109276,0.7093745,0.8680605,0.74059224,0.88276523,0.70852494,0.76201236,0.8276345,0.80133843,0.4200025,0.65349436,0.73858154,0.75767267,0.10221617
1.0,0.20277408,0.16350351,0.11413623,0.06998903,-1.6528778,-0.07152585,0.12973481,0.19340242,0.086548954,-0.22775428,-0.108796485,-0.072522394,0.4208044,-0.085849024,-0.32270736,-0.13213578,-0.04889963,0.15955363,0.0193604,0.44281197,0.7033208,0.80611914,0.889553,0.9119512,0.059183378,0.9211101,0.835243,0.8186805,0.98781574,0.8443125,0.8754977,0.7533938,0.90896434,0.88770235,0.84162015,0.56304187,0.71852636,0.74152416,0.851238,0.10748905
1.0,-0.045549475,-0.1555134,-0.051062457,-0.14199644,-1.409393,-0.08985921,0.09541345,-0.1008258,0.10621168,0.04150465,0.026648149,0.27187973,0.3442911,0.11813814,-0.29720736,0.32707384,0.28186178,0.053405724,0.14224541,0.2633384,0.6766349,0.81024665,0.9189971,0.9141721,0.04385621,0.8763734,0.8267134,0.83205646,0.95068747,0.8272372,0.8025132,0.8361112,0.87391293,0.9298011,0.8291238,0.53247267,0.73836905,0.75405145,0.830254,0.11498744
1.0,-0.115714975,0.10505261,0.1043286,0.1434977,-1.3021251,-0.14754684,-0.10148162,0.04458543,-0.113233164,-0.154023,0.056310534,-0.16663189,0.13774332,-0.17885782,0.19263987,-0.530034,-0.26953253,-0.09225971,0.13442293,-0.56448394,0.65241,0.78630936,0.7903638,0.88282037,0.047917794,0.8516311,0.8258029,0.79045093,0.9706362,0.78681844,0.8725522,0.745201,0.80632555,0.89028513,0.8031538,0.46272504,0.6734606,0.73517156,0.839327,0.108774826
1.0,-0.25210547,-0.16876039,-0.06449752,-0.116193265,-0.7809025,-0.08275515,-0.06947611,-0.25442907,-0.09838888,0.13378163,0.1450848,0.23476243,-0.03471092,0.11708501,0.17103559,0.098704025,0.20136777,-0.16372378,0.080959536,-0.60325104,0.63686466,0.8090342,0.8380217,0.8724284,0.026174745,0.7889927,0.8357855,0.842176,0.9060904,0.75914204,0.8266697,0.80052936,0.8013561,0.87908274,0.7236092,0.43216804,0.62948185,0.76673985,0.7965408,0.119054876
1.0,-0.17069376,-0.08529303,-0.019714877,-0.037053026,-1.2547206,-0.13847496,-0.013579743,-0.13130982,-0.032472815,0.009117386,0.08835407,0.11079937,0.17661855,0.0013084812,0.027787669,-0.024414362,0.07511221,-0.09655029,0.17625165,-0.32875952,0.66280806,0.79711723,0.8432608,0.890974,0.040947966,0.8444328,0.8386768,0.8204653,0.9441371,0.79185206,0.82740253,0.79127,0.8229351,0.9028623,0.81148607,0.49255517,0.6881651,0.75050956,0.83696973,0.11549161
1.0,-0.76953316,-0.14644803,0.10958244,0.17163804,-0.37703064,-0.3706549,-0.51062757,-0.3309,-0.3907155,-0.052531525,0.40782523,-0.13724622,-0.03150931,-0.1892788,0.62512934,-1.0560467,-0.36895266,-0.45651126,0.5090721,-2.180843,0.53523976,0.721181,0.83641535,0.83298796,0.033506185,0.7069113,0.7277854,0.7913444,0.9159239,0.7576493,0.7755024,0.7523482,0.6621375,0.93441087,0.66606337,0.3116299,0.70699453,0.70799947,0.7869026,0.12093776
1.0,-0.23114325,-0.3628216,-0.17052269,-0.3264621,-0.9414524,-0.07789062,0.04332899,-0.35455745,0.11425057,0.31440848,0.1321813,0.5551362,0.17225301,0.30694956,-0.2401362,0.69807386,0.6163185,-0.08092482,0.1848998,-0.0023844987,0.6405465,0.7956957,0.94741946,0.8869649,0.027620265,0.8122477,0.82839286,0.84289426,0.9293278,0.7787065,0.76800525,0.8488032,0.82891005,0.92067015,0.7306154,0.48828,0.7082809,0.791326,0.77881193,0.1285475
1.0,-0.36122242,-0.17127213,-0.045452096,-0.10913343,-0.68209684,-0.18235601,-0.24019079,-0.39621285,-0.18298906,0.22703455,0.19246052,0.24059474,-0.11102945,0.1170321,0.19019698,-0.03634162,0.20926711,-0.27097598,0.19243097,-1.0722345,0.6442225,0.80496323,0.8723366,0.86812073,0.024358638,0.79723763,0.84060806,0.8597086,0.9051638,0.75848585,0.8546989,0.78369313,0.81065506,0.87376386,0.66456926,0.39855447,0.6374384,0.7921418,0.78732395,0.11603793
1.0,-0.32690558,-0.2692937,-0.120889835,-0.17269559,-0.8307477,-0.14367895,-0.06945577,-0.37028268,-0.059789628,0.24613048,0.160736,0.3321025,-0.039379023,0.18320487,0.110701956,0.26901853,0.33687955,-0.23363616,0.16028294,-0.6544148,0.6364315,0.80888253,0.8846145,0.8758429,0.027757855,0.7985921,0.830411,0.86185336,0.9233973,0.7692933,0.8162192,0.81258744,0.8105145,0.8885255,0.7257894,0.44580618,0.66077495,0.7933968,0.7920361,0.127367
1.0,-0.33236954,-0.15926684,-0.039585315,-0.06328566,-1.0146099,-0.19982718,-0.14141572,-0.30426708,-0.1356664,0.14822364,0.15854093,0.18084194,-0.015110888,0.045821942,0.1680427,-0.06582646,0.13261676,-0.25756404,0.21771213,-0.8844219,0.65323675,0.80166364,0.8613281,0.8844799,0.034080114,0.8305081,0.84202594,0.8516077,0.93535715,0.7792792,0.84088516,0.79526865,0.811283,0.8861987,0.7582574,0.4474836,0.6539227,0.780932,0.8259782,0.12068528
1.0,-0.47751033,-0.19880287,-0.053149752,-0.116147734,-0.57832897,-0.232675,-0.2892025,-0.45747054,-0.20848258,0.24631959,0.26100796,0.24856827,-0.08673171,0.07145793,0.22569728,-0.083028585,0.19530147,-0.3437997,0.2773877,-1.3465061,0.6182131,0.7900913,0.86300594,0.87008137,0.022153357,0.7798143,0.8122131,0.87092066,0.9000204,0.76028365,0.8354984,0.7868358,0.8017527,0.8820494,0.6410994,0.3755478,0.6332167,0.77323735,0.7758049,0.115999095
1.0,0.19279751,-0.17353386,-0.099783264,-0.2647674,-0.94784,0.12758715,0.0638888,-0.09266321,0.13632523,0.23123802,-0.05446171,0.49002445,0.08473818,0.40780964,-0.3973429,0.6846269,0.61516684,0.20014152,-0.13243738,0.7538324,0.7000754,0.84901565,0.97510767,0.9045904,0.026672747,0.8502834,0.8905832,0.80877036,0.9263639,0.78112304,0.8557731,0.8562384,0.8752299,0.8809976,0.72994626,0.49787375,0.68833524,0.8117933,0.7990835,0.11183982
1.0,-0.13036779,-0.020082017,0.028856196,0.09309299,-1.2748821,-0.14076528,-0.06522356,-0.056761116,-0.09649396,-0.061218202,0.059829827,-0.06361983,0.0565959,-0.06685363,0.2173203,-0.29690814,-0.12583625,-0.10572124,0.12582323,-0.5013367,0.6656455,0.7928962,0.82298356,0.87972385,0.044914775,0.84488887,0.83434355,0.81376016,0.9550065,0.78881305,0.8523438,0.76982665,0.8057049,0.8882112,0.82139254,0.47481072,0.6816981,0.7547004,0.8410431,0.1157926
1.0,-0.19639492,-0.1703318,-0.060001142,-0.17366421,-1.049329,-0.11872749,-0.05926369,-0.27725372,-0.03389194,0.20286731,0.09681227,0.32100537,0.06761872,0.16754788,-0.07822579,0.23206683,0.34203744,-0.13915695,0.14716911,-0.3397951,0.6700102,0.8225012,0.9035898,0.88678,0.032400694,0.83334565,0.87112004,0.8370518,0.93186617,0.769031,0.83721924,0.8090279,0.84572536,0.879711,0.75074935,0.48444077,0.6697438,0.8015774,0.81128407,0.11943731
1.0,-0.25031033,-0.12834087,-0.037104927,-0.059027746,-1.4326494,-0.23665567,-0.009480261,-0.21409044,0.0016672537,0.07100557,0.09343184,0.14881366,0.24800026,-0.007688786,-0.07204805,0.051360764,0.14316788,-0.17359065,0.3149589,-0.41702992,0.6684653,0.7900188,0.8815948,0.89530385,0.048325073,0.879218,0.832135,0.8435305,0.9742383,0.8137653,0.82015294,0.7839734,0.83914053,0.91421384,0.8271371,0.51597404,0.73078626,0.7598377,0.84888464,0.120670654
1.0,-0.3413823,0.015520617,0.12564322,0.22723952,-0.79416305,-0.1990056,-0.35419786,-0.06075596,-0.27209297,-0.13957798,0.23142752,-0.22406371,-0.044955395,-0.19694176,0.56618917,-0.88697433,-0.4396965,-0.1846188,0.20823857,-1.3449131,0.5960438,0.735633,0.7829208,0.8516745,0.037416533,0.7790772,0.76216143,0.7735313,0.9236659,0.76185673,0.82669157,0.74978536,0.7224351,0.9209533,0.726985,0.36350965,0.6635642,0.7175953,0.80066544,0.10871655
1.0,-0.094029635,0.023664804,0.030509092,0.017125018,-1.3449996,-0.13346332,-0.038700208,-0.055868074,-0.05010443,-0.030203609,0.04342638,0.01155886,0.17212291,-0.06253536,-0.0018926524,-0.17913884,-0.027455501,-0.08612115,0.13167447,-0.2917227,0.67355466,0.8104795,0.8396924,0.89718443,0.04537432,0.8681364,0.850804,0.8133137,0.96500415,0.8023018,0.8684302,0.77711225,0.850581,0.879929,0.81350565,0.49568725,0.6787736,0.75575733,0.84055954,0.111310445
1.0,-0.27477473,-0.13925701,-0.040198646,-0.064913,-1.1966643,-0.18867658,-0.059679102,-0.23111181,-0.065191,0.086171046,0.130943,0.16472554,0.12303936,0.018139541,0.065721765,-0.005229585,0.12696244,-0.19026734,0.23768455,-0.5845306,0.6571662,0.79847926,0.85349905,0.89196974,0.039371688,0.84308505,0.8394543,0.83569145,0.9458205,0.7865335,0.8251436,0.7959834,0.81926423,0.9024856,0.7985776,0.48231366,0.6837716,0.7644236,0.836619,0.11957208
1.0,-0.15702003,-0.070139594,-0.011629313,-0.022058161,-1.3426282,-0.15646985,0.001341749,-0.11472805,-0.014903046,-0.006628992,0.0712872,0.08695691,0.21403745,-0.017119344,-0.008479286,-0.03529917,0.060130037,-0.09133173,0.1969488,-0.28598118,0.6671501,0.79474866,0.8510109,0.89206725,0.04458399,0.8582436,0.83551025,0.82292634,0.956473,0.8028151,0.82978505,0.78456455,0.8295321,0.9048091,0.82209176,0.50317925,0.7025204,0.7485506,0.8426615,0.1156346
1.0,0.03534314,0.035682656,0.07292457,0.21758038,-0.87049985,0.029367838,-0.1549586,0.084224574,-0.18929592,-0.1680492,0.044954427,-0.23332967,-0.23051432,-0.047342602,0.5783755,-0.5555455,-0.36819765,0.034939818,-0.14813241,-0.51943785,0.6502662,0.7851638,0.7687582,0.85820204,0.033763845,0.77577204,0.8278911,0.77915776,0.89052,0.74945396,0.857717,0.7615212,0.7648266,0.8636388,0.7679798,0.40745124,0.63413477,0.7523504,0.7927527,0.10988286
1.0,0.91183466,0.41273943,0.32865658,0.692199,-1.0279399,0.3964181,0.056225907,0.87269455,-0.061258636,-0.6910223,-0.38744622,-0.90174305,-0.40532506,-0.1530821,0.866316,-1.048346,-0.98303515,0.6413327,-0.8474565,0.90808254,0.67900145,0.7799446,0.73457986,0.8202027,0.04766669,0.770476,0.78141344,0.69424635,0.87787557,0.73791105,0.90185696,0.68264824,0.7520242,0.81822205,0.7952106,0.4392141,0.6592676,0.74468154,0.7455079,0.102149904
1.0,-0.2991049,-0.2026942,-0.07678261,-0.13734171,-0.9228881,-0.14528699,-0.08282177,-0.3132473,-0.08238849,0.18487296,0.15351239,0.27639037,0.005688548,0.123627216,0.09668185,0.13704546,0.25768736,-0.21010216,0.16406608,-0.64860827,0.6461524,0.8117636,0.8698644,0.8840596,0.030329132,0.81060874,0.84320784,0.8478919,0.9240904,0.7704514,0.82484156,0.80947435,0.81864524,0.88504994,0.7450681,0.45602968,0.6535381,0.7847611,0.8075597,0.1223533
1.0,0.008599555,0.0776711,0.06894577,0.10403341,-1.4295202,-0.102805555,0.011951309,0.06950788,-0.025128085,-0.149984,-0.0077781156,-0.10702904,0.19720855,-0.10388459,0.04833364,-0.28193435,-0.1468249,0.0029435363,0.07937924,-0.1278818,0.6767257,0.7960202,0.8245048,0.889102,0.049993787,0.8666596,0.83703035,0.80213344,0.96746445,0.80608237,0.8636068,0.75536877,0.83808696,0.8852867,0.8324575,0.5050171,0.696088,0.7401005,0.8438333,0.110361174
1.0,0.109197065,0.11098946,0.09745592,0.22453061,-1.158838,-0.009134084,-0.10208078,0.13574469,-0.12948632,-0.18233787,-0.03006687,-0.25452015,-0.101149954,-0.08590271,0.36844257,-0.53391004,-0.3451558,0.05167041,-0.12599537,-0.2575332,0.67360836,0.7993401,0.79769623,0.8673693,0.042873576,0.8258711,0.8385345,0.78043234,0.92817366,0.7761572,0.8950195,0.7544889,0.8034086,0.86193615,0.7985662,0.4446411,0.6583446,0.7614086,0.81406987,0.10777267
1.0,0.63036233,0.32691172,0.27622655,0.5765916,-1.0660934,0.2779066,0.028779823,0.70948297,-0.08123211,-0.62083966,-0.23016495,-0.7704866,-0.2922101,-0.21863897,0.841053,-1.0040952,-0.9129745,0.479322,-0.5758031,0.4182368,0.65587234,0.76488364,0.7005455,0.83861274,0.045474913,0.7561319,0.79295915,0.7076842,0.87719274,0.7358182,0.8508144,0.6887475,0.750733,0.83721906,0.8128705,0.43509862,0.6628243,0.7166452,0.7673386,0.10504973
1.0,-0.1846368,0.034806915,0.16199699,0.34093505,-0.63137954,-0.069954716,-0.3199298,0.10465978,-0.28036788,-0.26745173,0.18943752,-0.39548403,-0.20378995,-0.20491202,0.8457511,-1.0282359,-0.6405799,-0.04823471,0.029518493,-1.1812469,0.57990134,0.72600585,0.73601097,0.8413909,0.034268484,0.72721064,0.75107247,0.7502891,0.8817415,0.7341551,0.79112893,0.73599696,0.6922549,0.9016732,0.7346461,0.34758273,0.65771854,0.7028658,0.7753373,0.11093143
1.0,0.1936063,-0.2917644,-0.14515483,-0.2800541,-1.2408243,0.12091267,0.20021829,-0.0558765,0.24130183,0.18835431,-0.07643061,0.53997445,0.23868194,0.39196944,-0.52943265,0.8968214,0.6481064,0.25903052,-0.06881701,0.9673595,0.6996125,0.83392674,1.0150578,0.93343955,0.034733754,0.8983429,0.8408512,0.85186744,0.9584915,0.84833014,0.7967471,0.9076236,0.8879209,0.91841805,0.811882,0.531475,0.74426216,0.77835953,0.82524806,0.11838434
1.0,0.67205507,0.30021268,0.22787043,0.5423577,-1.0485972,0.29881182,0.018556517,0.64090544,-0.08515258,-0.5352278,-0.26735023,-0.7123661,-0.35757616,-0.13418438,0.7748816,-0.8640332,-0.80410457,0.47754785,-0.63431144,0.5470868,0.6785613,0.7791326,0.73666096,0.83695847,0.04311873,0.77169406,0.8110513,0.7232691,0.87602067,0.74618244,0.8851344,0.7073482,0.7647617,0.8255671,0.80181533,0.43568587,0.6504555,0.74418217,0.7643759,0.103270926
1.0,-0.08223783,0.027991576,0.04616234,0.063750654,-1.212408,-0.08864937,-0.047546778,-0.0048026526,-0.083546594,-0.09582126,0.058307115,-0.04469647,0.106587544,-0.0746797,0.15415195,-0.28123575,-0.12051121,-0.05105079,0.075214006,-0.3590001,0.66102856,0.79959506,0.8009569,0.88750017,0.041052178,0.8339235,0.84329814,0.79909533,0.9406116,0.78023016,0.85507214,0.771277,0.81766045,0.88382,0.8051029,0.473572,0.663471,0.7423458,0.8314668,0.11050995
1.0,0.17132793,0.16547315,0.11518253,0.20822635,-1.173655,0.02665357,-0.06479062,0.1955363,-0.10205277,-0.21515062,-0.05291996,-0.25636917,-0.042126663,-0.106426924,0.28944093,-0.51497453,-0.34485087,0.0987555,-0.16664582,-0.087060615,0.6737202,0.80591476,0.7848354,0.8762455,0.042295918,0.8268906,0.8470732,0.7737975,0.92757726,0.7769727,0.9014395,0.75244606,0.82426786,0.854076,0.7940256,0.45290795,0.6500697,0.75249547,0.8090132,0.10452492
1.0,-0.026562113,0.0792451,0.12328553,0.2777858,-1.1630286,-0.0799436,-0.13551877,0.13385364,-0.15650855,-0.23329863,0.034528606,-0.3178969,-0.07004837,-0.15934806,0.5110018,-0.70571566,-0.4547976,-0.011113325,0.003399022,-0.5960454,0.6456612,0.7709193,0.7718703,0.8578,0.04622143,0.81077176,0.8035953,0.7718077,0.93895066,0.76511014,0.8527227,0.73737663,0.758512,0.891779,0.80982935,0.4333077,0.6795708,0.7379527,0.82131284,0.112267
1.0,-0.15470837,-0.10514561,-0.03425502,-0.068333946,-1.3112609,-0.14079444,0.011113811,-0.13992307,0.0058444887,0.027923906,0.078387775,0.15333404,0.22981513,0.025436414,-0.06280583,0.07150176,0.13458483,-0.07440583,0.18968484,-0.19624066,0.66614056,0.798816,0.8642287,0.8958502,0.042405445,0.8540281,0.8359961,0.82342327,0.9489959,0.80210686,0.8209518,0.7999541,0.83648586,0.90904045,0.81667703,0.5061154,0.704309,0.75251037,0.83534867,0.115743935
1.0,0.25301167,0.20818664,0.14370416,0.2668315,-1.1571528,0.06662123,-0.06506607,0.27937248,-0.10345305,-0.27769047,-0.082425036,-0.34081492,-0.08013172,-0.13060164,0.35999924,-0.6113219,-0.444472,0.15773751,-0.23931894,-0.003965497,0.67207617,0.80273306,0.76960063,0.8726812,0.042991284,0.8183147,0.84118813,0.76065314,0.92027026,0.7717901,0.90471536,0.7434563,0.81958073,0.8496287,0.7933054,0.4460497,0.65119,0.7488883,0.8000318,0.10307237
1.0,0.056816906,0.036607888,0.04247636,0.13793048,-1.2834536,-0.04453291,-0.02498121,0.061186977,-0.06748898,-0.1166694,-0.019747205,-0.13646086,0.014576711,-0.04708814,0.21135469,-0.29460242,-0.17728004,0.024329176,-0.03497673,-0.13126297,0.6788691,0.8019951,0.828731,0.87795824,0.044847395,0.8417084,0.84076643,0.8012167,0.9439178,0.7925381,0.8689353,0.7736142,0.82258284,0.86887854,0.8246402,0.48053375,0.6761684,0.7604876,0.82690513,0.11187918
1.0,-0.06593008,-0.003948964,0.026273385,0.0588651,-1.3625721,-0.11654754,0.007815881,-0.0073310747,-0.024678227,-0.09862727,0.034838952,-0.030892987,0.18836348,-0.059247456,0.068886735,-0.1782208,-0.071488075,-0.02802069,0.12442271,-0.20059007,0.6687116,0.7913528,0.8288317,0.8869802,0.04662385,0.85201335,0.8320942,0.80744165,0.95573974,0.7985526,0.8391689,0.770046,0.8228393,0.8975158,0.83013934,0.50073695,0.70088696,0.74104166,0.8399696,0.113239564
1.0,-0.1076226,-0.054815613,-0.015448913,0.004980929,-0.3451421,-0.020944268,-0.30800992,-0.24700889,-0.21762365,0.117576174,0.12642463,0.030539501,-0.29199564,0.12897092,0.42216885,-0.24147055,-0.014979944,-0.10518565,-0.07447057,-0.85941106,0.6449637,0.80680186,0.83987355,0.8372589,0.019319545,0.76081187,0.8128805,0.8111028,0.8713123,0.75070363,0.88580775,0.7447878,0.7947875,0.8534071,0.5870893,0.34176904,0.635684,0.7848537,0.73461294,0.105994985
1.0,-0.35839152,-0.22771846,-0.078709744,-0.1585426,-1.02263,-0.19995233,-0.07819927,-0.35258344,-0.06379637,0.20647213,0.16934706,0.3086288,0.06984349,0.10188024,0.039914396,0.16823663,0.29099685,-0.25074804,0.2574418,-0.71360797,0.6463456,0.8039074,0.87795687,0.8905839,0.032934915,0.8252059,0.84171176,0.8542298,0.9322393,0.7740933,0.81072885,0.80664337,0.82392526,0.8984658,0.7535378,0.46920335,0.6724606,0.7847166,0.815492,0.12455555
1.0,-0.3763664,-0.2930454,-0.124914415,-0.2749334,-0.691814,-0.13385598,-0.055073947,-0.42467573,-0.026174411,0.30502385,0.18425696,0.46151322,0.0422711,0.22196113,-0.04154159,0.4445808,0.48808143,-0.23566248,0.19318119,-0.593915,0.6211233,0.8122157,0.8891011,0.87108785,0.022380529,0.78507346,0.8279632,0.86317956,0.91066617,0.748462,0.80369663,0.80913585,0.8241332,0.89322245,0.66738,0.4382833,0.6539755,0.79249734,0.76286614,0.12702847
1.0,-0.11002711,-0.0010139309,0.015827246,-0.013188079,-1.4425501,-0.1597374,-0.007031748,-0.07326102,-0.006804362,-0.023485744,0.047525577,0.052368242,0.26383656,-0.05739563,-0.0977034,-0.08628042,0.028279498,-0.08282111,0.19543964,-0.20917103,0.67491525,0.80647314,0.8535947,0.90430003,0.04867585,0.8816653,0.8443369,0.81760406,0.97444665,0.81314903,0.8525776,0.778973,0.8604657,0.8937345,0.8279804,0.51663035,0.705224,0.75038457,0.84609866,0.11238816
1.0,-0.27105767,-0.28759375,-0.11955992,-0.23436101,-1.1298673,-0.1561729,0.008447591,-0.32541192,0.05552478,0.22574331,0.13830629,0.41375926,0.20459971,0.18346022,-0.15720367,0.4331859,0.43480644,-0.13462444,0.2532616,-0.23246709,0.6500052,0.79775214,0.91868746,0.8954218,0.03444029,0.83165723,0.83208925,0.8419918,0.93445385,0.78560317,0.7800338,0.83081037,0.8346734,0.9235656,0.7710568,0.5010269,0.7158548,0.7813973,0.8071836,0.12479883
1.0,-0.3031095,-0.15360506,-0.08836859,-0.19527507,-0.4409892,-0.07079068,-0.14507255,-0.3653267,-0.11003485,0.24727613,0.17569396,0.2903599,-0.09529046,0.15639608,0.11855108,0.19927564,0.30095264,-0.23040487,0.076218866,-0.7993377,0.6126663,0.82472086,0.8473608,0.8571036,0.018215816,0.7689934,0.8174148,0.86520815,0.90301746,0.748762,0.85174334,0.7737142,0.82202744,0.8524387,0.60579985,0.3819866,0.6134727,0.7744959,0.7450661,0.11726828
1.0,-0.1979236,-0.07306031,-0.015034638,-0.0478759,-1.3626187,-0.18540215,-0.023330893,-0.1589003,-0.022759054,0.038172983,0.08659271,0.117854014,0.21825013,-0.023336962,-0.047581725,-0.022050994,0.09226507,-0.13977368,0.2377722,-0.37759542,0.66825277,0.8022385,0.85875386,0.90028405,0.045287814,0.86953783,0.8428643,0.82875115,0.9660181,0.80617535,0.836893,0.78692895,0.84398466,0.89939433,0.8187172,0.50644064,0.70119077,0.75614685,0.8451966,0.116151094
1.0,-0.1773119,-0.0756746,-0.082458355,-0.11424398,-0.13180058,-0.021636639,-0.29128197,-0.3603365,-0.16699132,0.21977276,0.15143703,0.108371675,-0.24245939,0.13603148,0.28671584,-0.01767999,0.12936375,-0.18189695,-0.004038386,-0.9008074,0.62215024,0.8188468,0.84010494,0.8351247,0.014548851,0.7544251,0.79355776,0.8341966,0.884932,0.75641173,0.87875926,0.7265671,0.8046561,0.83956736,0.50734055,0.3202759,0.62811315,0.7729925,0.7014904,0.107914545
1.0,-0.30344263,0.09818145,0.4400635,0.67717576,-0.05645496,-0.14823286,-0.5809438,0.19230169,-0.50760096,-0.5578858,0.17343056,-0.731853,-0.3237851,-0.3803445,1.1556761,-1.9704648,-1.1785734,-0.022218296,-0.033440374,-1.6079156,0.5442138,0.7303259,0.8442045,0.7960803,0.056930117,0.6698305,0.7116681,0.661214,0.84056294,0.756166,0.8225568,0.6999207,0.6286207,0.86516786,0.7029384,0.27181858,0.8053146,0.7069843,0.73026264,0.12667328
1.0,-0.54628134,-0.1130436,0.016129792,-0.0034615248,-0.9321445,-0.32594544,-0.3102895,-0.34638563,-0.23087056,0.106096186,0.28808177,0.09517151,0.11456704,-0.14278746,0.19140956,-0.416604,-0.031660803,-0.36921796,0.43609142,-1.4659065,0.6108537,0.7503913,0.8443896,0.8844631,0.033636678,0.82641554,0.78960097,0.8515866,0.93928653,0.7841554,0.8208469,0.7908335,0.7832598,0.91343683,0.7094031,0.3961886,0.6454772,0.7379889,0.81986135,0.112208895
1.0,-0.00392556,-0.03737075,-0.0025528967,-0.060126677,-1.4905541,-0.11067165,0.06391674,-0.041202366,0.06788033,-0.008705739,-0.007761538,0.12736669,0.32059953,0.029606268,-0.25892594,0.112670645,0.14410478,0.024857303,0.12415027,0.19035248,0.6846746,0.81510824,0.9041568,0.90938646,0.04893453,0.8929529,0.83703876,0.82588786,0.9698219,0.82994103,0.8423571,0.8035733,0.88487613,0.9039717,0.8305532,0.5339834,0.72499716,0.7581667,0.83786064,0.11197058
1.0,-1.3664006,0.0705101,0.713828,0.56131124,0.31287637,-0.7533937,-0.57722354,-0.20948468,-0.7142027,-0.4397876,0.4471984,-0.46255773,0.66951233,-0.6808752,0.03823852,-2.3056903,-0.6847803,-0.63011557,0.831164,-2.474722,0.42443585,0.75294435,1.0156645,0.785505,0.06382949,0.69818527,0.71660036,0.7412767,0.8564491,0.7524091,0.7904823,0.8008606,0.5447044,0.82360923,0.5588422,0.25117403,0.793524,0.64793134,0.7758054,0.12694217
1.0,-0.18069872,-0.025259255,0.014332242,-0.005696006,-0.48452076,-0.062785394,-0.29515687,-0.23070374,-0.23051056,0.08512805,0.15147884,0.05437991,-0.1788896,0.07008013,0.32842365,-0.2996414,-0.017639894,-0.13425703,-0.00070717186,-0.9168275,0.6416315,0.802792,0.8304121,0.84785414,0.022011932,0.77480185,0.8283921,0.81556463,0.8807415,0.7491097,0.8834438,0.7611556,0.7981084,0.8564079,0.6249367,0.36137894,0.6181156,0.77429175,0.757996,0.10501028
1.0,0.16983041,-0.23849417,-0.08350659,-0.17800349,-1.4634165,0.039940577,0.23238273,0.0020100363,0.22007066,0.053810902,-0.09761398,0.38749498,0.3446342,0.27074188,-0.5014978,0.67725974,0.45729434,0.25161433,-0.0290348,0.88677734,0.69818735,0.8248091,1.0051644,0.9317391,0.04408898,0.9181945,0.8107049,0.8676112,0.9645382,0.87158406,0.79159343,0.8923398,0.90099674,0.9373366,0.84750336,0.54620373,0.7636812,0.76116246,0.8341884,0.11702196
1.0,-0.29213697,-0.08893662,-0.01748991,-0.08636598,-1.3147541,-0.22486229,-0.060435705,-0.22861813,-0.04756692,0.08939933,0.12795082,0.1667185,0.22397473,-0.042132158,-0.06791152,-0.018653251,0.13318534,-0.21577837,0.3061176,-0.5837679,0.65942353,0.80173343,0.8568672,0.9051628,0.043048717,0.8702733,0.8468227,0.8374264,0.9679205,0.79686034,0.83352023,0.78605336,0.84822345,0.8962464,0.7937455,0.49983191,0.68683577,0.76154363,0.8405915,0.117125675
1.0,-0.30326545,-0.15826693,-0.046780966,-0.16840838,-0.67067534,-0.13431513,-0.17709874,-0.37369025,-0.14075585,0.24429096,0.15048851,0.30201864,-0.07416501,0.16146709,0.069332495,0.11331552,0.30788848,-0.22820397,0.14188755,-0.81866556,0.65017897,0.82119346,0.8773668,0.8652515,0.022852832,0.8003055,0.8575698,0.85742676,0.9052191,0.74447936,0.85928977,0.7814484,0.8293356,0.8619252,0.64736533,0.41307175,0.6312822,0.8035575,0.7757805,0.115959466
1.0,0.3907077,0.37843472,0.3021814,0.43152058,-1.4217036,0.049036752,0.075742394,0.5669379,-0.0242645,-0.56735504,-0.17387444,-0.5656601,0.13908556,-0.26935425,0.32491812,-0.89211947,-0.63288337,0.28945053,-0.22384858,0.191052,0.6636867,0.7601721,0.755082,0.8540924,0.058155224,0.8288902,0.800129,0.7424929,0.9653563,0.76618576,0.87684554,0.6614344,0.7912839,0.8666152,0.81710285,0.49996257,0.6921921,0.71411794,0.8232227,0.10610119
1.0,-0.3077342,-0.18222106,-0.058825023,-0.07167874,-1.1919554,-0.21507035,-0.054416254,-0.27259034,-0.05702395,0.121543184,0.13440107,0.18376194,0.10018363,0.038913663,0.08697841,0.039895147,0.15869094,-0.22176535,0.26256508,-0.64325666,0.6550206,0.79368,0.86702913,0.88792115,0.03985496,0.84348,0.83187675,0.8483545,0.94977003,0.7918145,0.81697667,0.79591477,0.8139479,0.90590054,0.7977092,0.48024762,0.69418776,0.7699098,0.8357005,0.12357561
1.0,-0.2706023,-0.27522066,-0.11641415,-0.24675198,-0.99759126,-0.13217084,-0.02232073,-0.34861073,0.02322413,0.26300168,0.13757911,0.42836797,0.11967492,0.212707,-0.12007837,0.42612085,0.46082124,-0.1558487,0.2078234,-0.31235117,0.64979476,0.80663484,0.9172973,0.8872268,0.030424805,0.8180532,0.84745574,0.84263027,0.92945445,0.7706805,0.79602134,0.82303005,0.8345317,0.9014429,0.7398,0.48659047,0.6883719,0.7966691,0.7947719,0.12517712
1.0,-0.24331254,0.0465023,0.09715993,0.15842628,-1.241291,-0.21020664,-0.17074288,-0.030384623,-0.15712777,-0.12186977,0.11620015,-0.15895969,0.11028172,-0.18772492,0.2787614,-0.6031028,-0.2839571,-0.16869618,0.22765708,-0.87520796,0.6368441,0.76778954,0.79903907,0.87231696,0.047526628,0.844557,0.80272335,0.7968174,0.97205085,0.78114045,0.8543834,0.7473323,0.7754922,0.91128147,0.7942149,0.44076568,0.68125594,0.73508203,0.8407587,0.11171615
1.0,0.078830004,0.14047226,0.15432751,0.3186316,-0.9604552,0.008790817,-0.18852463,0.20868695,-0.1909081,-0.2824299,0.020397857,-0.38085973,-0.17012757,-0.15655817,0.6039816,-0.8204469,-0.55809975,0.0767863,-0.14524838,-0.52515644,0.64142686,0.7694268,0.7499883,0.85309845,0.039837454,0.7859503,0.8063443,0.7513462,0.90330017,0.7536882,0.8699642,0.73538756,0.7563122,0.878428,0.7689845,0.39896226,0.6541235,0.7358212,0.7921773,0.10515512
1.0,-0.34539357,-0.10960751,-0.11637998,-0.160617,0.047272246,-0.10174376,-0.32318136,-0.47633064,-0.17426659,0.25076854,0.21965921,0.1256608,-0.1666485,0.08254263,0.21174704,-0.009140762,0.17556438,-0.30348167,0.15292773,-1.1681457,0.5938607,0.8131916,0.83831334,0.8345843,0.012536759,0.7328194,0.773619,0.8487975,0.8915336,0.7516357,0.85551816,0.72052854,0.78110427,0.84442323,0.4560082,0.3005135,0.62375325,0.7602722,0.68461686,0.11043827
1.0,-0.19368646,-0.030940717,0.0104720965,-0.0045871325,-1.3392155,-0.1812502,-0.054319024,-0.12881742,-0.061446328,0.0052975663,0.0860229,0.05593119,0.18086416,-0.060188405,0.017725848,-0.14837858,0.01180812,-0.14946525,0.21740869,-0.4718399,0.6667072,0.8014429,0.8407638,0.8962394,0.04497073,0.8667602,0.84453994,0.82261926,0.96569175,0.7978651,0.85152817,0.7785392,0.8364628,0.8932661,0.8142769,0.49384713,0.6864101,0.75509393,0.84611154,0.11439319
1.0,-0.0254322,0.16517907,0.16001648,0.24805963,-1.2993115,-0.10753562,-0.0992517,0.17918344,-0.1162351,-0.26876527,0.0198894,-0.31007573,0.10089391,-0.22349776,0.3265129,-0.72196484,-0.4355989,-0.0136613045,0.062193073,-0.5057612,0.64484066,0.7738032,0.7652041,0.87033176,0.050898783,0.83544064,0.8092294,0.76621896,0.9668535,0.7741108,0.8670644,0.72246945,0.7822703,0.89603966,0.80947506,0.45409447,0.6860693,0.72514755,0.83350605,0.10786515
1.0,-0.34064636,-0.1966357,-0.06428032,-0.115315564,-1.1286324,-0.21663806,-0.074159116,-0.31734598,-0.065330185,0.16875955,0.15369064,0.24427643,0.08762399,0.058171395,0.053879783,0.08823375,0.22040513,-0.24875547,0.27169758,-0.71055,0.65246546,0.8005194,0.872944,0.89308524,0.036941368,0.8403954,0.840274,0.85245687,0.9446554,0.78551894,0.81742233,0.8005122,0.8235403,0.8997284,0.7769073,0.47647613,0.6814422,0.77841085,0.8292445,0.123672314
1.0,0.17169502,0.25630763,0.161986,0.17349996,-1.5316509,-0.0681417,0.027763885,0.24119535,-0.008443296,-0.27395573,-0.081421755,-0.23887792,0.2763257,-0.19261687,-0.043451585,-0.47149736,-0.27102762,0.08679288,-0.0020239577,0.068569034,0.68735325,0.8001078,0.813849,0.89748955,0.056729775,0.8909944,0.84276164,0.7857742,0.98806494,0.81202716,0.9026822,0.7224091,0.86944324,0.86573726,0.82905734,0.52139866,0.687705,0.73499864,0.84776676,0.10494549
1.0,0.9341378,0.56547624,0.476582,0.7733506,-1.1234937,0.35276148,0.08119491,1.0537398,-0.048394777,-0.8958875,-0.38647887,-1.0288943,-0.24738562,-0.32921845,0.8597853,-1.3713589,-1.177478,0.70126534,-0.79839826,0.7936107,0.6622391,0.750447,0.6934152,0.81756175,0.05467413,0.7603789,0.76345044,0.66929185,0.8834002,0.7239871,0.88789046,0.6274335,0.7481824,0.83102316,0.7871612,0.44614133,0.6693829,0.7101734,0.75312203,0.10101765
